wave-length (nm),A
339.78,-0.0845
340.159,-0.0845
340.537,-0.0845
340.915,0.0868
341.293,-0.0784
341.671,0.239
342.049,0.35
342.427,-0
342.805,-0.0798
343.183,-0.7653
343.561,-0.1993
343.939,-0.1133
344.317,-0
344.694,-0
345.072,-0.1292
345.45,-0
345.827,-0.4294
346.205,0.0577
346.583,0.5219
346.96,-1.2813
347.338,-0
347.715,-0.0675
348.092,-0
348.47,-0.0122
348.847,0.611
349.224,0.1513
349.601,1.5325
349.979,-0.2814
350.356,0.0492
350.733,-0
351.11,1.1688
351.487,-0.0431
351.864,0.3324
352.241,-1.4472
352.618,-0.5321
352.995,-0.706
353.372,-0.3698
353.748,-0
354.125,-0
354.502,-0
354.878,-0.03
355.255,0.5161
355.632,0.2036
356.008,-0.3068
356.385,-0.4321
356.761,-0.2331
357.137,-0.0558
357.514,0.0931
357.89,1.224
358.266,-0.8143
358.643,0.3271
359.019,0.7798
359.395,-0.9818
359.771,0.1003
360.147,0.3727
360.523,-0.3569
360.899,-0.0143
361.275,-0.6509
361.651,0.4447
362.027,-0.4972
362.403,-0.0979
362.779,0.7597
363.155,-0
363.53,0.3914
363.906,0.069
364.282,0.1502
364.657,0.0307
365.033,-0.2515
365.408,0.0658
365.784,-0.0135
366.159,-0.2843
366.535,-0.1211
366.91,0.2388
367.285,-0.0932
367.66,0.0256
368.036,-1.5128
368.411,-0.0134
368.786,-0.016
369.161,-0.0445
369.536,-0.0798
369.911,-0.3207
370.286,-0.9818
370.661,-0.0019
371.036,-0.1988
371.411,-0.6401
371.786,-0.1128
372.16,0.0185
372.535,-0.0492
372.91,-0.1531
373.285,-0.0589
373.659,0.1645
374.034,-0.1249
374.408,-0.0659
374.783,0.2915
375.157,0.0259
375.532,0.1973
375.906,-2.0808
376.28,0.0978
376.655,-0.0399
377.029,0.064
377.403,0.4274
377.777,-0.0937
378.151,-0.2383
378.525,0.3209
378.899,-0.0492
379.273,0.0881
379.647,-0.0262
380.021,-0.0018
380.395,-0.0594
380.769,-0.031
381.143,0.1496
381.517,-0.0466
381.89,-0.0124
382.264,-0.0895
382.638,-0.2558
383.011,-0.1873
383.385,0.0639
383.758,-0.0358
384.132,-0.1827
384.505,-0.1233
384.878,-0.0959
385.252,-0.0297
385.625,-0.0495
385.998,-0.0111
386.372,-0.2225
386.745,-0.0827
387.118,-0.0817
387.491,-0.0225
387.864,-0.0711
388.237,-0.0631
388.61,0.0906
388.983,-0.095
389.356,0.0563
389.729,-0.0157
390.101,0.1402
390.474,0.0505
390.847,-0.0062
391.219,0.1784
391.592,-0.1231
391.965,-0.1654
392.337,-0.0788
392.71,-0.0695
393.082,0.0098
393.455,0.0718
393.827,0.0191
394.199,0.0239
394.572,-0.0437
394.944,0.0323
395.316,0.0499
395.688,0.0635
396.06,-0.006
396.433,-0.2717
396.805,-0.2614
397.177,-0.0497
397.549,0.0118
397.92,-0.0026
398.292,0.0181
398.664,-0.1538
399.036,-0.0519
399.408,-0.0943
399.779,-0.0353
400.151,-0.0114
400.523,0.1197
400.894,0.0842
401.266,-0.097
401.637,0.0141
402.009,-0.002
402.38,0.0341
402.752,-0.035
403.123,0.0199
403.494,0.0782
403.866,-0.066
404.237,-0.0257
404.608,0.0029
404.979,-0.0668
405.35,-0.0413
405.721,0.0114
406.092,-0.066
406.463,-0.0384
406.834,-0.0151
407.205,-0.0275
407.576,-0.0524
407.947,-0.031
408.317,-0.1191
408.688,-0.0396
409.059,-0.0361
409.429,-0.0365
409.8,-0.0343
410.171,-0.016
410.541,-0.0103
410.912,0.007
411.282,0.0415
411.652,-0.017
412.023,-0.036
412.393,-0.0264
412.763,0.0164
413.133,-0.0847
413.504,-0.0282
413.874,-0.0062
414.244,-0.0091
414.614,-0.0479
414.984,-0.0369
415.354,0.0017
415.724,0.0192
416.094,-0.0145
416.463,-0.0308
416.833,-0.018
417.203,-0.0532
417.573,0.0487
417.942,-0.004
418.312,0.0125
418.682,-0.0263
419.051,-0.0328
419.421,0.0111
419.79,-0.0341
420.159,-0.0094
420.529,-0.0284
420.898,-0.0009
421.267,0.0052
421.637,-0.0116
422.006,-0.0221
422.375,-0.0164
422.744,-0.013
423.113,-0.0295
423.482,-0.024
423.851,-0.0281
424.22,-0.0568
424.589,-0.0166
424.958,-0.0406
425.327,0.0021
425.695,-0.0237
426.064,-0.0232
426.433,-0.0155
426.802,0.0058
427.17,-0.0215
427.539,-0.0241
427.907,-0.0143
428.276,-0.0312
428.644,-0.0032
429.013,-0.0473
429.381,-0.0311
429.749,-0.037
430.118,-0.0313
430.486,-0.0334
430.854,-0.05
431.222,-0.0249
431.59,-0.0321
431.958,-0.0077
432.326,-0.0165
432.694,-0.0281
433.062,-0.0159
433.43,-0.0489
433.798,-0.023
434.166,0.0043
434.533,-0.0339
434.901,-0.0361
435.269,-0.0461
435.636,-0.0682
436.004,-0.0378
436.372,-0.0188
436.739,0.0073
437.107,0.0004
437.474,-0.0167
437.841,-0.0324
438.209,-0.0033
438.576,-0.0019
438.943,-0.0356
439.31,0.0026
439.678,-0.0363
440.045,-0.0019
440.412,-0.0227
440.779,-0.0027
441.146,-0.0085
441.513,-0.0077
441.88,-0.0066
442.247,0.0071
442.613,-0.0295
442.98,-0.0133
443.347,-0.0107
443.714,-0.0221
444.08,0.0027
444.447,-0.0142
444.813,-0.0434
445.18,-0.011
445.546,-0.0191
445.913,0.0016
446.279,-0.0303
446.646,-0.0316
447.012,-0.0456
447.378,-0.0107
447.744,-0.0046
448.111,-0.0108
448.477,-0.0318
448.843,-0.0067
449.209,0.0241
449.575,-0.0273
449.941,-0.0238
450.307,-0.0177
450.673,-0.0226
451.039,-0.0038
451.404,0.0006
451.77,-0.0052
452.136,-0.0007
452.502,0.0073
452.867,-0.0101
453.233,0.0062
453.598,-0.0276
453.964,0.0052
454.329,-0.0072
454.695,-0.0094
455.06,0.0082
455.425,-0.0071
455.791,-0.0167
456.156,-0.0024
456.521,0.0081
456.886,-0.0221
457.251,-0.0158
457.616,-0.0065
457.981,-0.0042
458.346,-0.0135
458.711,-0.0059
459.076,-0.0044
459.441,-0.0066
459.806,-0.0065
460.171,-0.0115
460.535,0.0031
460.9,-0.001
461.265,-0.0229
461.629,0.0011
461.994,-0.0219
462.358,-0.0131
462.723,-0.0168
463.087,0.0221
463.452,-0.0036
463.816,0.0023
464.18,-0.002
464.544,0.0158
464.909,0.0004
465.273,-0.0157
465.637,0.004
466.001,-0.0023
466.365,-0
466.729,0.0073
467.093,-0.0076
467.457,0.005
467.821,-0.0113
468.185,-0.0167
468.548,-0.0011
468.912,0.0233
469.276,-0.0074
469.639,0.0017
470.003,-0.0268
470.367,-0.0212
470.73,-0.012
471.094,-0.0071
471.457,0.0054
471.82,-0.0085
472.184,0.0035
472.547,0.0086
472.91,-0.0113
473.274,-0.0077
473.637,-0.0022
474,0.0015
474.363,0.0057
474.726,-0.0083
475.089,0.0017
475.452,-0.0006
475.815,0.0158
476.178,0.016
476.54,0.0007
476.903,0.0078
477.266,0.0118
477.629,-0.007
477.991,0.0215
478.354,0.015
478.716,-0.0054
479.079,0.0064
479.441,0.0098
479.804,0.0088
480.166,0.0093
480.529,0.016
480.891,-0.0052
481.253,-0.0125
481.615,0.0041
481.978,-0.0028
482.34,0.0005
482.702,-0.0043
483.064,-0.0035
483.426,-0.003
483.788,0.0044
484.15,0.0118
484.512,0.0064
484.873,0.0037
485.235,0.009
485.597,-0.0072
485.959,0.0071
486.32,0.0012
486.682,0.0062
487.043,0.0119
487.405,-0.0047
487.766,-0.007
488.128,0.0036
488.489,-0.0021
488.85,0.0014
489.212,0.0053
489.573,-0.0059
489.934,-0.0015
490.295,0.0088
490.657,0.0084
491.018,-0.0034
491.379,0.0119
491.74,0.0041
492.101,0.0127
492.461,0.0091
492.822,-0.0064
493.183,0.0016
493.544,0.0122
493.905,0.0069
494.265,0.0116
494.626,0.0093
494.987,0.0103
495.347,0.0024
495.708,0.0033
496.068,0.0064
496.429,-0.0046
496.789,0.0066
497.149,0.0041
497.509,0.0186
497.87,0.0031
498.23,-0.0025
498.59,-0.0027
498.95,0.0166
499.31,0.022
499.67,0.0163
500.03,0.0174
500.39,0.0025
500.75,0.0037
501.11,0.0154
501.47,0.0083
501.83,0.0025
502.189,0.0038
502.549,0.0057
502.909,-0.0051
503.268,-0.0034
503.628,0.0023
503.987,0.0153
504.347,0.0135
504.706,0.0117
505.065,0.0222
505.425,0.014
505.784,0.0053
506.143,0.0106
506.502,0.0124
506.862,0.01
507.221,0.0026
507.58,-0.0017
507.939,-0.0006
508.298,0.0056
508.657,0.001
509.015,0.005
509.374,0.0093
509.733,0.01
510.092,0.0013
510.451,0.0048
510.809,0.0208
511.168,0.0237
511.526,0.0189
511.885,0.0073
512.243,0.0065
512.602,0.0125
512.96,0.0209
513.319,0.0051
513.677,0.0032
514.035,0.0134
514.393,0.0172
514.751,0.0116
515.11,0.0147
515.468,0.0108
515.826,0.0095
516.184,0.0141
516.542,0.0154
516.9,0.0077
517.257,0.0084
517.615,0.0071
517.973,0.0007
518.331,0.0153
518.688,0.0184
519.046,0.0049
519.404,0.0172
519.761,0.0129
520.119,0.0076
520.476,0.0096
520.834,0.0154
521.191,0.0156
521.548,0.0043
521.906,0.0032
522.263,-0.0001
522.62,0.0133
522.977,0.013
523.334,0.0039
523.691,0.0113
524.048,0.0094
524.405,0.0223
524.762,0.0246
525.119,0.0193
525.476,0.0137
525.833,0.0202
526.189,0.0201
526.546,0.0156
526.903,0.0095
527.259,0.0076
527.616,0.0088
527.973,0.01
528.329,0.0136
528.685,0.011
529.042,0.0084
529.398,0.016
529.755,0.022
530.111,0.0169
530.467,0.0074
530.823,0.0183
531.179,0.0128
531.535,0.0231
531.891,0.0098
532.247,0.0203
532.603,0.0229
532.959,0.0195
533.315,0.0215
533.671,0.023
534.027,0.0238
534.382,0.0326
534.738,0.0227
535.094,0.0197
535.449,0.0212
535.805,0.0249
536.16,0.0157
536.516,0.0211
536.871,0.0055
537.226,0.0097
537.582,0.0101
537.937,0.0155
538.292,0.0174
538.647,0.0223
539.003,0.0179
539.358,0.0346
539.713,0.0293
540.068,0.0238
540.423,0.0249
540.778,0.0331
541.132,0.0136
541.487,0.0194
541.842,0.013
542.197,0.0145
542.552,0.0147
542.906,0.0198
543.261,0.0141
543.615,0.0262
543.97,0.0299
544.324,0.0337
544.679,0.0353
545.033,0.0264
545.387,0.0289
545.742,0.0341
546.096,0.0359
546.45,0.0318
546.804,0.0308
547.158,0.0375
547.512,0.0347
547.866,0.0234
548.22,0.0212
548.574,0.0249
548.928,0.0265
549.282,0.0195
549.636,0.0305
549.99,0.0235
550.343,0.0334
550.697,0.0312
551.05,0.0312
551.404,0.0287
551.758,0.0279
552.111,0.0392
552.464,0.0378
552.818,0.0249
553.171,0.0387
553.524,0.0292
553.878,0.0336
554.231,0.0274
554.584,0.0469
554.937,0.0387
555.29,0.0378
555.643,0.0375
555.996,0.0431
556.349,0.0409
556.702,0.0406
557.055,0.0459
557.408,0.0461
557.76,0.0407
558.113,0.0503
558.466,0.0467
558.818,0.0472
559.171,0.04
559.523,0.0445
559.876,0.0468
560.228,0.0397
560.581,0.0485
560.933,0.0381
561.285,0.0495
561.638,0.0478
561.99,0.0452
562.342,0.049
562.694,0.0463
563.046,0.0557
563.398,0.0555
563.75,0.0539
564.102,0.0606
564.454,0.0479
564.806,0.0535
565.158,0.0569
565.509,0.0524
565.861,0.0506
566.213,0.0448
566.564,0.0544
566.916,0.0467
567.267,0.0551
567.619,0.0562
567.97,0.0597
568.322,0.0515
568.673,0.0549
569.024,0.0502
569.376,0.0614
569.727,0.0546
570.078,0.0546
570.429,0.0563
570.78,0.0642
571.131,0.0627
571.482,0.0693
571.833,0.0663
572.184,0.0668
572.535,0.0677
572.885,0.0623
573.236,0.0618
573.587,0.0718
573.938,0.0666
574.288,0.074
574.639,0.0671
574.989,0.0691
575.34,0.0744
575.69,0.0729
576.04,0.0741
576.391,0.0629
576.741,0.0762
577.091,0.0783
577.442,0.0759
577.792,0.0709
578.142,0.0695
578.492,0.0716
578.842,0.0777
579.192,0.0797
579.542,0.0861
579.892,0.0796
580.241,0.071
580.591,0.0779
580.941,0.0836
581.291,0.0923
581.64,0.0948
581.99,0.084
582.339,0.0815
582.689,0.09
583.038,0.0883
583.388,0.0868
583.737,0.0883
584.086,0.0917
584.436,0.0834
584.785,0.099
585.134,0.088
585.483,0.0916
585.832,0.0879
586.181,0.0871
586.53,0.0894
586.879,0.0959
587.228,0.0956
587.577,0.1006
587.926,0.0974
588.275,0.1004
588.623,0.0998
588.972,0.1103
589.321,0.1102
589.669,0.1083
590.018,0.1114
590.366,0.1091
590.715,0.1108
591.063,0.1106
591.412,0.1145
591.76,0.1165
592.108,0.1262
592.456,0.1201
592.805,0.1259
593.153,0.1151
593.501,0.115
593.849,0.1159
594.197,0.1247
594.545,0.1242
594.893,0.1273
595.24,0.133
595.588,0.1381
595.936,0.141
596.284,0.1279
596.631,0.1244
596.979,0.1436
597.327,0.1338
597.674,0.1469
598.022,0.1434
598.369,0.1426
598.716,0.1384
599.064,0.1418
599.411,0.1408
599.758,0.1457
600.105,0.1447
600.453,0.1409
600.8,0.1547
601.147,0.1511
601.494,0.1487
601.841,0.1423
602.188,0.1513
602.535,0.1549
602.881,0.1608
603.228,0.1673
603.575,0.1545
603.922,0.1637
604.268,0.1625
604.615,0.1611
604.961,0.1621
605.308,0.1651
605.654,0.1738
606.001,0.1774
606.347,0.1739
606.693,0.1695
607.04,0.1665
607.386,0.1734
607.732,0.1709
608.078,0.1696
608.424,0.1689
608.77,0.176
609.116,0.1883
609.462,0.1756
609.808,0.1835
610.154,0.1852
610.5,0.1817
610.846,0.1761
611.191,0.1809
611.537,0.1797
611.883,0.1886
612.228,0.1927
612.574,0.1865
612.919,0.1905
613.265,0.1842
613.61,0.1911
613.955,0.1899
614.301,0.1984
614.646,0.1932
614.991,0.1908
615.336,0.1924
615.681,0.1939
616.026,0.1916
616.371,0.1963
616.716,0.1943
617.061,0.1973
617.406,0.1967
617.751,0.1992
618.096,0.1977
618.44,0.1952
618.785,0.1947
619.13,0.1911
619.474,0.1911
619.819,0.1865
620.163,0.2006
620.508,0.1872
620.852,0.1998
621.197,0.2077
621.541,0.2013
621.885,0.1993
622.229,0.2032
622.574,0.2067
622.918,0.2014
623.262,0.203
623.606,0.2055
623.95,0.204
624.294,0.1931
624.638,0.2008
624.981,0.2087
625.325,0.2101
625.669,0.2083
626.013,0.1955
626.356,0.1931
626.7,0.2012
627.043,0.2028
627.387,0.1956
627.73,0.2088
628.074,0.1905
628.417,0.2044
628.761,0.2119
629.104,0.2025
629.447,0.1982
629.79,0.1998
630.133,0.2069
630.476,0.2126
630.819,0.214
631.162,0.22
631.505,0.2197
631.848,0.2161
632.191,0.2091
632.534,0.2188
632.877,0.214
633.219,0.222
633.562,0.2152
633.905,0.2219
634.247,0.2189
634.59,0.2227
634.932,0.2214
635.275,0.2182
635.617,0.2181
635.959,0.2254
636.302,0.2232
636.644,0.2278
636.986,0.2291
637.328,0.2305
637.67,0.2335
638.012,0.2407
638.354,0.249
638.696,0.2483
639.038,0.2438
639.38,0.239
639.722,0.2353
640.064,0.2417
640.405,0.2483
640.747,0.2493
641.089,0.2475
641.43,0.2506
641.772,0.2591
642.113,0.2519
642.455,0.2524
642.796,0.2481
643.137,0.2554
643.479,0.2558
643.82,0.263
644.161,0.2604
644.502,0.2699
644.843,0.2748
645.185,0.2664
645.526,0.2776
645.866,0.2717
646.207,0.2854
646.548,0.2796
646.889,0.2824
647.23,0.2894
647.571,0.3017
647.911,0.2962
648.252,0.2903
648.592,0.2936
648.933,0.3057
649.273,0.3003
649.614,0.3027
649.954,0.3082
650.295,0.3088
650.635,0.3091
650.975,0.3167
651.315,0.312
651.656,0.3135
651.996,0.3205
652.336,0.3124
652.676,0.3194
653.016,0.3093
653.356,0.3291
653.695,0.3315
654.035,0.3249
654.375,0.3265
654.715,0.3348
655.054,0.3482
655.394,0.343
655.734,0.341
656.073,0.3481
656.413,0.3628
656.752,0.3627
657.091,0.3476
657.431,0.3503
657.77,0.3495
658.109,0.3479
658.449,0.3511
658.788,0.3545
659.127,0.3528
659.466,0.3586
659.805,0.3643
660.144,0.362
660.483,0.3628
660.822,0.3799
661.16,0.371
661.499,0.3691
661.838,0.3735
662.177,0.3709
662.515,0.3733
662.854,0.3577
663.192,0.3709
663.531,0.3635
663.869,0.3658
664.208,0.3691
664.546,0.3636
664.884,0.3621
665.222,0.3765
665.561,0.3712
665.899,0.3743
666.237,0.3756
666.575,0.3895
666.913,0.3868
667.251,0.3782
667.589,0.3967
667.927,0.3814
668.264,0.3754
668.602,0.3762
668.94,0.3609
669.278,0.3743
669.615,0.3712
669.953,0.3645
670.29,0.3569
670.628,0.3581
670.965,0.3564
671.303,0.3508
671.64,0.3454
671.977,0.3636
672.314,0.3626
672.652,0.3644
672.989,0.3407
673.326,0.3485
673.663,0.3431
674,0.3449
674.337,0.3477
674.674,0.3467
675.01,0.3365
675.347,0.3185
675.684,0.3187
676.021,0.3085
676.357,0.3067
676.694,0.2961
677.031,0.2767
677.367,0.2751
677.704,0.2797
678.04,0.2684
678.376,0.2576
678.713,0.2639
679.049,0.2652
679.385,0.2764
679.721,0.2619
680.057,0.2565
680.393,0.2544
680.73,0.2418
681.065,0.255
681.401,0.2414
681.737,0.2351
682.073,0.2269
682.409,0.2143
682.745,0.2171
683.08,0.2091
683.416,0.2011
683.752,0.2014
684.087,0.1911
684.423,0.1867
684.758,0.1793
685.093,0.1801
685.429,0.1756
685.764,0.1679
686.099,0.168
686.435,0.1601
686.77,0.1682
687.105,0.156
687.44,0.1484
687.775,0.1469
688.11,0.1417
688.445,0.1456
688.78,0.1415
689.114,0.1381
689.449,0.1321
689.784,0.126
690.119,0.1206
690.453,0.1243
690.788,0.1197
691.122,0.1159
691.457,0.1151
691.791,0.1014
692.126,0.1033
692.46,0.1057
692.794,0.1001
693.128,0.0924
693.463,0.094
693.797,0.0937
694.131,0.0909
694.465,0.0854
694.799,0.0896
695.133,0.0953
695.467,0.0831
695.801,0.0899
696.134,0.0809
696.468,0.0782
696.802,0.08
697.135,0.0745
697.469,0.0759
697.803,0.0756
698.136,0.0675
698.47,0.0685
698.803,0.0657
699.136,0.0605
699.47,0.0617
699.803,0.0532
700.136,0.0553
700.469,0.049
700.802,0.0579
701.135,0.0674
701.468,0.0596
701.801,0.0538
702.134,0.0714
702.467,0.0589
702.8,0.0448
703.133,0.0537
703.465,0.0548
703.798,0.0498
704.131,0.0415
704.463,0.0368
704.796,0.0485
705.128,0.0523
705.461,0.0531
705.793,0.0395
706.125,0.0378
706.458,0.0412
706.79,0.0394
707.122,0.0376
707.454,0.0457
707.786,0.0331
708.118,0.0346
708.45,0.0327
708.782,0.0337
709.114,0.0202
709.446,0.0328
709.778,0.0383
710.11,0.0433
710.441,0.0399
710.773,0.0395
711.104,0.042
711.436,0.0402
711.768,0.0346
712.099,0.03
712.43,0.029
712.762,0.0365
713.093,0.0447
713.424,0.0445
713.755,0.0358
714.087,0.0323
714.418,0.0429
714.749,0.0451
715.08,0.0382
715.411,0.0348
715.742,0.0326
716.072,0.0327
716.403,0.0373
716.734,0.0383
717.065,0.0377
717.395,0.035
717.726,0.0238
718.057,0.0231
718.387,0.0149
718.718,0.0281
719.048,0.0359
719.378,0.0268
719.709,0.0308
720.039,0.0318
720.369,0.0251
720.699,0.0272
721.029,0.0297
721.359,0.0317
721.689,0.0375
722.019,0.0334
722.349,0.0237
722.679,0.0296
723.009,0.0296
723.339,0.0409
723.669,0.0389
723.998,0.037
724.328,0.0356
724.657,0.0327
724.987,0.0372
725.316,0.0304
725.646,0.0355
725.975,0.0412
726.305,0.0416
726.634,0.0384
726.963,0.0235
727.292,0.0272
727.621,0.0259
727.95,0.0276
728.279,0.0232
728.608,0.0307
728.937,0.032
729.266,0.0369
729.595,0.0427
729.924,0.0401
730.253,0.0234
730.581,0.0273
730.91,0.0123
731.238,0.0252
731.567,0.0241
731.896,0.0283
732.224,0.0302
732.552,0.0208
732.881,0.0212
733.209,0.0186
733.537,0.0303
733.865,0.0276
734.194,0.0285
734.522,0.0215
734.85,0.0216
735.178,0.0291
735.506,0.014
735.833,0.0351
736.161,0.0454
736.489,0.0312
736.817,0.039
737.144,0.0395
737.472,0.0294
737.8,0.0358
738.127,0.0318
738.455,0.0296
738.782,0.031
739.11,0.0311
739.437,0.0283
739.764,0.0307
740.091,0.0307
740.419,0.0292
740.746,0.0232
741.073,0.0267
741.4,0.0285
741.727,0.0266
742.054,0.0226
742.381,0.0252
742.708,0.0281
743.034,0.0307
743.361,0.0386
743.688,0.0353
744.014,0.0402
744.341,0.0336
744.668,0.0225
744.994,0.0394
745.321,0.0225
745.647,0.0296
745.973,0.0339
746.3,0.0325
746.626,0.0287
746.952,0.032
747.278,0.0261
747.604,0.0265
747.93,0.0206
748.256,0.029
748.582,0.029
748.908,0.0324
749.234,0.0283
749.56,0.0386
749.885,0.0356
750.211,0.0399
750.537,0.0354
750.862,0.0427
751.188,0.0397
751.513,0.034
751.839,0.0268
752.164,0.0299
752.49,0.0263
752.815,0.033
753.14,0.0137
753.465,0.0267
753.79,0.0161
754.116,0.0289
754.441,0.0315
754.766,0.0214
755.091,0.0295
755.415,0.023
755.74,0.0145
756.065,0.0224
756.39,0.0229
756.714,0.0356
757.039,0.0285
757.364,0.0334
757.688,0.0257
758.013,0.0332
758.337,0.0253
758.662,0.0285
758.986,0.0277
759.31,0.0289
759.634,0.0227
759.959,0.0289
760.283,0.0345
760.607,0.0275
760.931,0.0309
761.255,0.0274
761.579,0.0294
761.903,0.0309
762.226,0.0274
762.55,0.0303
762.874,0.0278
763.198,0.0114
763.521,0.0305
763.845,0.0285
764.168,0.0333
764.492,0.0347
764.815,0.0285
765.139,0.033
765.462,0.03
765.785,0.0371
766.109,0.0256
766.432,0.0264
766.755,0.0345
767.078,0.0341
767.401,0.0342
767.724,0.0264
768.047,0.0315
768.37,0.0292
768.693,0.0314
769.015,0.0279
769.338,0.0345
769.661,0.0344
769.983,0.0276
770.306,0.0371
770.628,0.0189
770.951,0.0255
771.273,0.0111
771.596,0.0186
771.918,0.0201
772.24,0.0249
772.562,0.0285
772.885,0.0329
773.207,0.0266
773.529,0.026
773.851,0.0281
774.173,0.0394
774.495,0.0462
774.817,0.0347
775.138,0.0328
775.46,0.0344
775.782,0.0371
776.103,0.0379
776.425,0.0396
776.747,0.0353
777.068,0.0325
777.39,0.0275
777.711,0.0292
778.032,0.0343
778.354,0.0242
778.675,0.0403
778.996,0.0229
779.317,0.0279
779.638,0.0226
779.959,0.0277
780.28,0.021
780.601,0.0287
780.922,0.0222
781.243,0.0335
781.564,0.0328
781.885,0.0209
782.205,0.0289
782.526,0.0053
782.847,0.025
783.167,0.023
783.488,0.0303
783.808,0.0191
784.128,0.0088
784.449,0.019
784.769,0.015
785.089,0.011
785.409,0.0181
785.73,0.0244
786.05,0.0281
786.37,0.0272
786.69,0.031
787.01,0.0392
787.329,0.036
787.649,0.0354
787.969,0.0245
788.289,0.0123
788.608,0.0428
788.928,0.0282
789.248,0.0329
789.567,0.027
789.887,0.031
790.206,0.0244
790.525,0.0271
790.845,0.0296
791.164,0.0368
791.483,0.0353
791.802,0.0336
792.121,0.0382
792.44,0.0266
792.76,0.0401
793.078,0.0401
793.397,0.0416
793.716,0.0349
794.035,0.0473
794.354,0.0284
794.672,0.0348
794.991,0.0392
795.31,0.0379
795.628,0.0426
795.947,0.0383
796.265,0.0337
796.584,0.0223
796.902,0.0335
797.22,0.0185
797.538,0.0267
797.857,0.0167
798.175,0.0232
798.493,0.0379
798.811,0.0325
799.129,0.0436
799.447,0.0387
799.765,0.0423
800.083,0.0476
800.4,0.0499
800.718,0.0558
801.036,0.0536
801.353,0.0487
801.671,0.0443
801.988,0.0421
802.306,0.0364
802.623,0.0238
802.941,0.0456
803.258,0.038
803.575,0.033
803.892,0.018
804.21,0.0253
804.527,0.0197
804.844,0.0213
805.161,0.0096
805.478,0.0151
805.795,0.0117
806.111,0.0247
806.428,0.0293
806.745,0.048
807.062,0.0465
807.378,0.0342
807.695,0.0467
808.011,0.0456
808.328,0.052
808.644,0.0349
808.961,0.0421
809.277,0.0384
809.593,0.0385
809.91,0.0402
810.226,0.0508
810.542,0.0429
810.858,0.0425
811.174,0.0308
811.49,0.0289
811.806,0.0349
812.122,0.0302
812.438,0.0305
812.753,0.0304
813.069,0.0153
813.385,0.0103
813.7,0.0185
814.016,0.0066
814.331,0.0045
814.647,0.0104
814.962,0.0225
815.278,0.013
815.593,0.0292
815.908,0.0279
816.223,0.0182
816.538,0.0341
816.854,0.019
817.169,0.0265
817.484,0.0341
817.799,0.0454
818.113,0.0374
818.428,0.0473
818.743,0.0399
819.058,0.0413
819.372,0.018
819.687,0.0142
820.002,0.0287
820.316,0.0125
820.631,0.0285
820.945,0.0292
821.259,0.0246
821.574,0.0268
821.888,0.0318
822.202,0.021
822.516,0.0343
822.83,0.0296
823.145,0.0256
823.459,0.0179
823.772,0.0354
824.086,0.0223
824.4,0.0449
824.714,0.0299
825.028,0.0193
825.341,0.0097
825.655,0.035
825.969,0.0457
826.282,0.0395
826.596,0.0377
826.909,0.0295
827.222,0.0219
827.536,0.0151
827.849,0.0252
828.162,0.0294
828.475,0.0374
828.789,0.0299
829.102,0.0471
829.415,0.0546
829.728,0.0343
830.041,0.0273
830.353,0.0262
830.666,0.0102
830.979,0.0316
831.292,0.0465
831.604,0.0236
831.917,0.0463
832.229,0.0317
832.542,0.0317
832.854,0.0494
833.167,0.0328
833.479,0.0314
833.791,0.0417
834.104,0.0298
834.416,0.0386
834.728,0.0251
835.04,0.0418
835.352,0.0275
835.664,0.0255
835.976,0.0323
836.288,0.0521
836.599,0.0523
836.911,0.0503
837.223,0.0353
837.535,0.0372
837.846,0.0439
838.158,0.0439
838.469,0.0528
838.781,0.0394
839.092,0.0247
839.403,0.0425
839.715,0.038
840.026,0.0391
840.337,0.0422
840.648,0.0401
840.959,0.0082
841.27,0.0288
841.581,0.0192
841.892,0.0314
842.203,0.0272
842.514,0.0147
842.825,0.0393
843.135,0.0264
843.446,0.0371
843.757,0.0363
844.067,0.0339
844.378,0.024
844.688,0.0323
844.999,0.037
845.309,0.0441
845.619,0.0227
845.929,0.0474
846.24,0.0445
846.55,0.0482
846.86,0.0438
847.17,0.0274
847.48,0.0309
847.79,0.0268
848.1,0.0486
848.409,0.0129
848.719,0.0228
849.029,0.0245
849.338,0.0124
849.648,0.0285
849.958,0.0304
850.267,0.025
850.577,0.0241
850.886,0.0481
851.195,0.0386
851.505,0.0243
851.814,0.0451
852.123,0.0202
852.432,0.0555
852.741,0.0289
853.05,0.0316
853.359,0.0467
853.668,0.0431
853.977,0.0478
854.286,0.0393
854.595,0.0078
854.903,0.0382
855.212,0.029
855.521,0.0367
855.829,0.0418
856.138,0.0436
856.446,0.039
856.754,0.0271
857.063,0.0365
857.371,0.0171
857.679,0.045
857.987,0.0566
858.296,0.0499
858.604,0.0377
858.912,0.0435
859.22,0.0459
859.527,0.0116
859.835,0.0294
860.143,0.0364
860.451,0.0395
860.759,0.0247
861.066,0.0388
861.374,0.0228
861.681,0.0246
861.989,0.0367
862.296,0.0336
862.604,0.0408
862.911,0.0289
863.218,0.0304
863.526,0.0322
863.833,0.0218
864.14,0.0163
864.447,0.0443
864.754,0.0369
865.061,0.0325
865.368,0.0447
865.675,0.0416
865.981,0.0112
866.288,0.0446
866.595,0.04
866.901,0.0317
867.208,0.0385
867.515,0.0305
867.821,0.0357
868.127,0.0389
868.434,0.0326
868.74,0.0238
869.046,0.0285
869.353,0.016
869.659,0.0245
869.965,0.0497
870.271,0.0443
870.577,0.0242
870.883,0.0318
871.189,0.0502
871.495,0.0466
871.8,0.0623
872.106,0.0236
872.412,0.0323
872.717,0.0195
873.023,0.0332
873.329,0.0275
873.634,0.0621
873.939,0.0585
874.245,0.0458
874.55,0.0336
874.855,0.0421
875.161,0.013
875.466,0.0451
875.771,0.0283
876.076,0.021
876.381,0.0418
876.686,0.0367
876.991,0.0345
877.295,0.0548
877.6,0.0364
877.905,0.0445
878.21,0.0449
878.514,0.0344
878.819,0.0494
879.123,0.0435
879.428,0.0374
879.732,0.0162
880.036,0.0482
880.341,0.0266
880.645,0.0465
880.949,0.059
881.253,0.05
881.557,0.0466
881.861,0.0764
882.165,0.0344
882.469,0.0535
882.773,0.0263
883.077,0.0487
883.381,0.0497
883.684,0.0314
883.988,0.0362
884.292,0.0357
884.595,0.0207
884.899,0.0327
885.202,0.0655
885.505,0.0341
885.809,0.0266
886.112,0.0347
886.415,0.0229
886.718,0.025
887.022,0.0333
887.325,0.0249
887.628,0.0377
887.931,0.0181
888.233,0.0185
888.536,0.0309
888.839,0.0323
889.142,-0.0059
889.444,0.0282
889.747,0.0055
890.05,0.0104
890.352,0.0196
890.655,0.0322
890.957,0.0327
891.259,0.024
891.562,0.0498
891.864,0.0151
892.166,0.0346
892.468,0.0186
892.77,0.0346
893.072,0.0103
893.374,0.0385
893.676,0.0268
893.978,0.0443
894.28,0.0249
894.582,0.0275
894.883,0.0477
895.185,0.0265
895.487,0.0453
895.788,0.0268
896.09,0.0091
896.391,0.0402
896.693,0.0312
896.994,0.0204
897.295,0.0298
897.596,0.0379
897.898,0.0326
898.199,0.0387
898.5,0.0251
898.801,0.0325
899.102,0.055
899.403,0.0411
899.703,0.0314
900.004,0.0461
900.305,0.0136
900.606,0.0439
900.906,0.0343
901.207,0.0256
901.507,0.0314
901.808,0.0465
902.108,0.0285
902.409,0.0405
902.709,0.0527
903.009,0.0207
903.309,0.0193
903.61,0.0224
903.91,-0.0036
904.21,0.025
904.51,-0.002
904.81,0.0042
905.109,0.0243
905.409,0.0338
905.709,0.0442
906.009,0.044
906.308,0.0421
906.608,0.0563
906.907,0.0305
907.207,-0.0077
907.506,0.0122
907.806,0.0353
908.105,0.0446
908.404,0.0471
908.704,0.0616
909.003,0.0394
909.302,0.0498
909.601,0.0224
909.9,0.0033
910.199,0.0199
910.498,0.0367
910.797,0.0201
911.095,0.0586
911.394,0.0274
911.693,0.0705
911.991,0.0626
912.29,0.0054
912.589,0.0255
912.887,0.0167
913.185,0.0207
913.484,0.0184
913.782,0.017
914.08,0.0351
914.378,0.0618
914.677,0.0335
914.975,0.0255
915.273,0.0525
915.571,0.0368
915.869,0.024
916.166,0.0248
916.464,0.0345
916.762,0.0435
917.06,0.0359
917.357,0.0328
917.655,0.0289
917.952,0.0374
918.25,0.0285
918.547,0.0131
918.845,0.0288
919.142,0.0342
919.439,0.0301
919.736,0.0319
920.034,0.0075
920.331,0.0213
920.628,-0.0001
920.925,0.0255
921.222,0.0166
921.518,0.0121
921.815,0.0127
922.112,0.0547
922.409,0.0303
922.705,0.0635
923.002,0.0192
923.299,0.0081
923.595,0.0493
923.891,0.0493
924.188,-0.0001
924.484,0.0194
924.78,0.0617
925.077,0.0517
925.373,0.0347
925.669,0.0329
925.965,0.0366
926.261,0.0409
926.557,0.0587
926.853,0.0029
927.149,0.0506
927.444,0.0577
927.74,0.0398
928.036,0.0343
928.331,0.0263
928.627,0.0165
928.923,0.0534
929.218,0.0492
929.513,0.033
929.809,0.0394
930.104,0.0171
930.399,0.0416
930.694,-0.0001
930.99,-0.0008
931.285,0.0313
931.58,0.0238
931.875,0.0013
932.169,0.0355
932.464,0.0145
932.759,0.0446
933.054,0.0661
933.348,0.0249
933.643,0.0227
933.938,0.0181
934.232,0.0629
934.527,0.0007
934.821,0.0224
935.115,0.0177
935.41,-0.0073
935.704,0.0571
935.998,0.0658
936.292,0.0269
936.586,0.0738
936.88,0.0704
937.174,0.0494
937.468,0.0481
937.762,0.0373
938.056,0.0334
938.35,-0.0213
938.643,0.1169
938.937,0.0307
939.23,-0.0234
939.524,0.0343
939.817,-0.0231
940.111,0.0041
940.404,0.0234
940.698,-0.0069
940.991,0.0824
941.284,0.0529
941.577,-0.0601
941.87,-0.0422
942.163,0.0473
942.456,0.0693
942.749,-0.0089
943.042,0.0295
943.335,-0.0282
943.628,0.0284
943.92,0.0293
944.213,-0.062
944.505,-0.0618
944.798,0.1137
945.09,0.0225
945.383,0.0308
945.675,0.0764
945.967,0.0541
946.26,0.0634
946.552,0.0387
946.844,-0.0647
947.136,-0.0464
947.428,0.1854
947.72,0.015
948.012,-0.0217
948.304,-0.0429
948.596,0.1064
948.887,-0.0329
949.179,-0.1382
949.471,-0.0038
949.762,-0.1249
950.054,-0.1411
950.345,-0.0598
950.637,0.1913
950.928,-0.0107
951.219,-0.0266
951.511,0.0927
951.802,-0.1057
952.093,0.1294
952.384,-0.0037
952.675,0.151
952.966,0.0326
953.257,-0.0889
953.548,0.0563
953.839,0.0213
954.13,-0.0174
954.42,-0.0072
954.711,-0.1294
955.001,0.083
955.292,-0.027
955.582,0.0262
955.873,-0.052
956.163,0.0323
956.454,-0.0302
956.744,0.0931
957.034,-0.0616
957.324,-0.0985
957.614,-0.0626
957.904,0.0024
958.194,0.1184
958.484,-0.0525
958.774,0.0071
959.064,-0.087
959.353,0.0396
959.643,0.0098
959.933,0.1609
960.222,-0.1332
960.512,0.0923
960.801,-0.0694
961.091,-0.0056
961.38,-0.069
961.669,-0.0262
961.959,-0.0102
962.248,-0.0912
962.537,-0.1933
962.826,0.0622
963.115,-0.0324
963.404,-0.0138
963.693,0.0625
963.982,0.1154
964.271,0.1738
964.559,0.0546
964.848,-0.0243
965.137,-0.0883
965.425,-0.0754
965.714,-0.2335
966.002,0.2087
966.291,0.0436
966.579,-0.0006
966.867,0.1205
967.156,-0.0778
967.444,-0.0077
967.732,-0.0275
968.02,0.1096
968.308,0.0636
968.596,0.0773
968.884,-0.1072
969.172,0.0852
969.459,-0.0893
969.747,-0.062
970.035,0.0794
970.322,0.1792
970.61,-0.1872
970.898,0.0424
971.185,-0.1943
971.472,0.1142
971.76,0.0615
972.047,-0.017
972.334,-0.1723
972.621,0.014
972.909,0.1658
973.196,0.059
973.483,0.029
973.77,0.0705
974.056,0.0539
974.343,0.1398
974.63,-0.0033
974.917,0.0834
975.203,-0.034
975.49,-0.0258
975.777,-0.1259
976.063,-0.0887
976.35,-0.0725
976.636,0.0303
976.922,-0.0503
977.209,-0.0676
977.495,-0.0369
977.781,-0.0123
978.067,-0.0921
978.353,-0.021
978.639,-0.0776
978.925,-0.0649
979.211,-0.0949
979.497,-0.0219
979.782,0.0519
980.068,0.0645
980.354,-0.012
980.639,-0.1318
980.925,0.0641
981.21,0.1568
981.496,0.0932
981.781,-0.0045
982.067,0.0123
982.352,0.0928
982.637,0.0489
982.922,-0.0007
983.207,-0.0064
983.492,-0.0522
983.777,-0.096
984.062,0.073
984.347,-0.0006
984.632,-0.0609
984.917,-0.2871
985.201,0.0064
985.486,-0.1666
985.771,-0.0865
986.055,-0.0283
986.34,-0.0306
986.624,-0.2111
986.908,0.1195
987.193,0.0556
987.477,0.1521
987.761,-0.0386
988.045,0.2217
988.329,-0.2011
988.613,0.1488
988.897,-0.002
989.181,-0.0048
989.465,0.0643
989.749,-0.1028
990.032,0.0292
990.316,-0.1885
990.6,0.145
990.883,-0.1609
991.167,0.0088
991.45,-0.2688
991.734,-0.3071
992.017,-0.0688
992.3,0.0976
992.583,0.1057
992.867,-0.099
993.15,-0.0399
993.433,-0.001
993.716,0.1436
993.999,-0.0511
994.282,-0.0674
994.564,-0.1563
994.847,0.1075
995.13,0.6924
995.413,0.0903
995.695,-0.1587
995.978,0.113
996.26,-0.2516
996.543,-0.3196
996.825,-0.3599
997.107,-0.1439
997.389,-0.2387
997.672,-0.2746
997.954,0.234
998.236,-0.3829
998.518,-0.0099
998.8,-0.0828
999.082,0.0604
999.364,-0.7464
999.645,0.0796
999.927,0.4732
1000.209,-0.0052
1000.491,0.0167
1000.772,0.0213
1001.054,0.9457
1001.335,0.0554
1001.616,-0.3787
1001.898,0.0117
1002.179,0.2865
1002.46,0.208
1002.742,-0.3569
1003.023,-0.0363
1003.304,-0.1509
1003.585,0.1598
1003.866,-0.0697
1004.147,-0.1249
1004.427,-0.0564
1004.708,-0.2901
1004.989,-0.5996
1005.269,0.3841
1005.55,0.0623
1005.831,-0.0547
1006.111,0.0595
1006.392,-0
1006.672,-0.0427
1006.952,0.0839
1007.232,-0
1007.513,-0
1007.793,-0
1008.073,-0
1008.353,0.0113
1008.633,0.2052
1008.913,1.6241
1009.193,0.1689
1009.472,-0.1183
1009.752,-0
1010.032,-0
1010.312,0.236
1010.591,0.2559
1010.871,-0.0012
1011.15,-0.1965
1011.429,-0.4863
1011.709,-0.3447
1011.988,-0
1012.267,0.2304
1012.547,-0.0895
1012.826,-0
1013.105,-0.19
1013.384,-0
1013.663,-0.2187
1013.941,-0.0203
1014.22,0.5919
1014.499,0.2105
1014.778,0.1954
1015.056,0.559
1015.335,-0.3691
1015.614,0.2178
1015.892,-0.2812
1016.17,-0
1016.449,-0.3278
1016.727,-0.0226
1017.005,1.4059
1017.284,1.4059
1017.562,1.4059
