wave-length (nm),A
339.78,-0.716
340.159,-0.716
340.537,-0.716
340.915,0.5715
341.293,-0.0413
341.671,-0.2487
342.049,0.3452
342.427,-0.4307
342.805,0.0751
343.183,-1.1569
343.561,1.4635
343.939,-0.5148
344.317,-0
344.694,-0.6287
345.072,-0.0397
345.45,-0
345.827,-0.4004
346.205,-0.3824
346.583,0.7504
346.96,-0.301
347.338,-0.2269
347.715,0.2443
348.092,-0
348.47,-0.3086
348.847,-0
349.224,-0.2339
349.601,-0
349.979,-0
350.356,0.2964
350.733,-0
351.11,0.0135
351.487,-0
351.864,-0
352.241,-0.5772
352.618,-0.4854
352.995,-0.301
353.372,-0.6933
353.748,-0
354.125,-0
354.502,-0
354.878,0.3352
355.255,-0
355.632,-0
356.008,1.0449
356.385,-0
356.761,0.035
357.137,-0
357.514,0.4906
357.89,1.0479
358.266,-0
358.643,0.487
359.019,-0
359.395,-0.1279
359.771,1.6261
360.147,2.0354
360.523,-0
360.899,0.0179
361.275,0.2759
361.651,0.1278
362.027,0.3283
362.403,-0
362.779,-0
363.155,-0
363.53,0.7686
363.906,0.5851
364.282,-0
364.657,0.4189
365.033,-0.0082
365.408,0.4632
365.784,0.5694
366.159,0.2489
366.535,0.6687
366.91,-0.029
367.285,0.0256
367.66,0.1593
368.036,-1.3955
368.411,0.1171
368.786,0.3492
369.161,0.2198
369.536,-0
369.911,-0.2197
370.286,-0
370.661,0.2566
371.036,0.64
371.411,-0.6006
371.786,0.0977
372.16,-0
372.535,-0
372.91,0.019
373.285,-0
373.659,0.2039
374.034,0.2922
374.408,-0
374.783,0.9369
375.157,-0
375.532,0.1292
375.906,-0
376.28,0.222
376.655,0.7293
377.029,0.4255
377.403,0.5509
377.777,1.0255
378.151,0.1371
378.525,-0
378.899,0.3428
379.273,0.5976
379.647,0.2581
380.021,0.2665
380.395,0.2968
380.769,0.4076
381.143,0.4982
381.517,0.1858
381.89,0.9181
382.264,0.8828
382.638,0.0515
383.011,0.4444
383.385,0.3137
383.758,1.4272
384.132,-0
384.505,0.146
384.878,0.188
385.252,0.1645
385.625,-0
385.998,1.5998
386.372,2.6479
386.745,0.1625
387.118,0.5324
387.491,0.1312
387.864,0.4096
388.237,0.3066
388.61,0.3523
388.983,0.7416
389.356,0.5736
389.729,0.5444
390.101,0.3106
390.474,0.3393
390.847,0.4044
391.219,0.3492
391.592,0.2774
391.965,0.4629
392.337,0.1391
392.71,0.6326
393.082,0.3799
393.455,0.3469
393.827,0.2373
394.199,0.2869
394.572,0.413
394.944,0.3235
395.316,0.3742
395.688,0.2729
396.06,0.2805
396.433,0.1351
396.805,0.1281
397.177,0.4648
397.549,0.2005
397.92,0.3198
398.292,0.4283
398.664,0.3287
399.036,0.4938
399.408,0.2783
399.779,0.3044
400.151,0.2394
400.523,0.3369
400.894,0.3442
401.266,0.5816
401.637,0.5941
402.009,0.2751
402.38,0.4063
402.752,0.3994
403.123,0.3341
403.494,0.6603
403.866,0.3546
404.237,0.3168
404.608,0.3753
404.979,0.2556
405.35,0.3734
405.721,0.444
406.092,0.3614
406.463,0.3193
406.834,0.2658
407.205,0.3838
407.576,0.3316
407.947,0.2383
408.317,0.186
408.688,0.2712
409.059,0.3449
409.429,0.2447
409.8,0.2518
410.171,0.343
410.541,0.2851
410.912,0.3038
411.282,0.3601
411.652,0.3966
412.023,0.2656
412.393,0.3578
412.763,0.3284
413.133,0.2091
413.504,0.2292
413.874,0.3316
414.244,0.359
414.614,0.2839
414.984,0.2533
415.354,0.3855
415.724,0.4212
416.094,0.3143
416.463,0.2706
416.833,0.3437
417.203,0.2562
417.573,0.28
417.942,0.3406
418.312,0.3513
418.682,0.2643
419.051,0.2754
419.421,0.3217
419.79,0.2934
420.159,0.3384
420.529,0.2849
420.898,0.3369
421.267,0.3036
421.637,0.3225
422.006,0.2777
422.375,0.3081
422.744,0.3315
423.113,0.2665
423.482,0.3232
423.851,0.332
424.22,0.2647
424.589,0.2554
424.958,0.2587
425.327,0.2799
425.695,0.2954
426.064,0.3571
426.433,0.3797
426.802,0.2766
427.17,0.2908
427.539,0.2804
427.907,0.2908
428.276,0.2708
428.644,0.287
429.013,0.3031
429.381,0.2546
429.749,0.2406
430.118,0.2816
430.486,0.3167
430.854,0.2993
431.222,0.303
431.59,0.2656
431.958,0.3485
432.326,0.2968
432.694,0.2616
433.062,0.2912
433.43,0.2921
433.798,0.3047
434.166,0.305
434.533,0.3127
434.901,0.2711
435.269,0.2442
435.636,0.2383
436.004,0.2821
436.372,0.232
436.739,0.298
437.107,0.3113
437.474,0.3073
437.841,0.2511
438.209,0.3169
438.576,0.3167
438.943,0.2717
439.31,0.3012
439.678,0.3224
440.045,0.3076
440.412,0.3107
440.779,0.326
441.146,0.2954
441.513,0.3287
441.88,0.304
442.247,0.3131
442.613,0.2995
442.98,0.3052
443.347,0.2712
443.714,0.2814
444.08,0.3108
444.447,0.2715
444.813,0.2838
445.18,0.3149
445.546,0.2662
445.913,0.2822
446.279,0.2804
446.646,0.2641
447.012,0.2807
447.378,0.302
447.744,0.2778
448.111,0.2756
448.477,0.3278
448.843,0.2975
449.209,0.2957
449.575,0.2799
449.941,0.3181
450.307,0.2605
450.673,0.3138
451.039,0.3154
451.404,0.3164
451.77,0.3032
452.136,0.3125
452.502,0.3131
452.867,0.2876
453.233,0.2764
453.598,0.2853
453.964,0.3102
454.329,0.3124
454.695,0.31
455.06,0.2991
455.425,0.3463
455.791,0.2848
456.156,0.3005
456.521,0.2891
456.886,0.2827
457.251,0.2897
457.616,0.2846
457.981,0.2776
458.346,0.2806
458.711,0.3027
459.076,0.2975
459.441,0.2757
459.806,0.3154
460.171,0.2907
460.535,0.2984
460.9,0.3049
461.265,0.2776
461.629,0.3259
461.994,0.2898
462.358,0.3064
462.723,0.2962
463.087,0.3211
463.452,0.2745
463.816,0.2827
464.18,0.2856
464.544,0.3115
464.909,0.3078
465.273,0.2659
465.637,0.2932
466.001,0.2902
466.365,0.2848
466.729,0.2933
467.093,0.2811
467.457,0.3092
467.821,0.3303
468.185,0.3262
468.548,0.2929
468.912,0.308
469.276,0.2892
469.639,0.2928
470.003,0.2539
470.367,0.2689
470.73,0.2941
471.094,0.3
471.457,0.31
471.82,0.2848
472.184,0.2928
472.547,0.3136
472.91,0.29
473.274,0.2971
473.637,0.2918
474,0.3034
474.363,0.2972
474.726,0.2792
475.089,0.3109
475.452,0.3135
475.815,0.3283
476.178,0.3188
476.54,0.2971
476.903,0.3014
477.266,0.3043
477.629,0.3006
477.991,0.2944
478.354,0.2921
478.716,0.2878
479.079,0.2968
479.441,0.323
479.804,0.3132
480.166,0.294
480.529,0.3044
480.891,0.2933
481.253,0.2849
481.615,0.3043
481.978,0.3118
482.34,0.3252
482.702,0.291
483.064,0.2962
483.426,0.2804
483.788,0.2969
484.15,0.3022
484.512,0.3036
484.873,0.299
485.235,0.303
485.597,0.3028
485.959,0.3047
486.32,0.2963
486.682,0.3103
487.043,0.2985
487.405,0.3055
487.766,0.2976
488.128,0.3082
488.489,0.2878
488.85,0.2968
489.212,0.3024
489.573,0.3082
489.934,0.2951
490.295,0.3069
490.657,0.2987
491.018,0.3046
491.379,0.3126
491.74,0.3039
492.101,0.3028
492.461,0.2988
492.822,0.2988
493.183,0.3096
493.544,0.3112
493.905,0.2913
494.265,0.2999
494.626,0.2967
494.987,0.3149
495.347,0.2972
495.708,0.2918
496.068,0.2979
496.429,0.2897
496.789,0.2974
497.149,0.3054
497.509,0.3195
497.87,0.3005
498.23,0.2974
498.59,0.2818
498.95,0.3014
499.31,0.3029
499.67,0.2937
500.03,0.2972
500.39,0.3034
500.75,0.2802
501.11,0.3037
501.47,0.3021
501.83,0.2951
502.189,0.3015
502.549,0.2932
502.909,0.2883
503.268,0.283
503.628,0.293
503.987,0.2988
504.347,0.3029
504.706,0.3131
505.065,0.3037
505.425,0.2982
505.784,0.2987
506.143,0.3124
506.502,0.2906
506.862,0.3085
507.221,0.3024
507.58,0.3
507.939,0.2965
508.298,0.3061
508.657,0.3086
509.015,0.3021
509.374,0.301
509.733,0.3165
510.092,0.3111
510.451,0.3109
510.809,0.3057
511.168,0.3149
511.526,0.3008
511.885,0.2904
512.243,0.3051
512.602,0.3057
512.96,0.314
513.319,0.2913
513.677,0.2951
514.035,0.3045
514.393,0.3045
514.751,0.3099
515.11,0.3025
515.468,0.2961
515.826,0.3012
516.184,0.3134
516.542,0.3001
516.9,0.2897
517.257,0.2995
517.615,0.3061
517.973,0.289
518.331,0.3056
518.688,0.3102
519.046,0.3004
519.404,0.3066
519.761,0.3
520.119,0.2989
520.476,0.2942
520.834,0.3022
521.191,0.299
521.548,0.3003
521.906,0.2952
522.263,0.3098
522.62,0.3016
522.977,0.3056
523.334,0.3094
523.691,0.3038
524.048,0.3063
524.405,0.3063
524.762,0.3033
525.119,0.312
525.476,0.3116
525.833,0.3125
526.189,0.3001
526.546,0.2958
526.903,0.2951
527.259,0.3024
527.616,0.2975
527.973,0.3018
528.329,0.2918
528.685,0.3039
529.042,0.2977
529.398,0.3082
529.755,0.311
530.111,0.3026
530.467,0.2964
530.823,0.3043
531.179,0.2993
531.535,0.3099
531.891,0.2967
532.247,0.2849
532.603,0.3011
532.959,0.3195
533.315,0.303
533.671,0.291
534.027,0.3085
534.382,0.3131
534.738,0.3097
535.094,0.2998
535.449,0.3013
535.805,0.3068
536.16,0.2896
536.516,0.2974
536.871,0.3073
537.226,0.285
537.582,0.2897
537.937,0.2978
538.292,0.301
538.647,0.2993
539.003,0.3105
539.358,0.3064
539.713,0.3038
540.068,0.3047
540.423,0.3051
540.778,0.2955
541.132,0.2891
541.487,0.2902
541.842,0.2842
542.197,0.2974
542.552,0.2959
542.906,0.2929
543.261,0.2992
543.615,0.309
543.97,0.324
544.324,0.3029
544.679,0.3225
545.033,0.308
545.387,0.311
545.742,0.3111
546.096,0.3152
546.45,0.3064
546.804,0.3003
547.158,0.3037
547.512,0.2969
547.866,0.2938
548.22,0.2927
548.574,0.294
548.928,0.2987
549.282,0.2784
549.636,0.3037
549.99,0.3071
550.343,0.3099
550.697,0.3144
551.05,0.3104
551.404,0.2999
551.758,0.2994
552.111,0.2997
552.464,0.3
552.818,0.2991
553.171,0.3032
553.524,0.3136
553.878,0.3069
554.231,0.2974
554.584,0.319
554.937,0.3082
555.29,0.3039
555.643,0.2969
555.996,0.3099
556.349,0.3025
556.702,0.3048
557.055,0.3069
557.408,0.3071
557.76,0.3077
558.113,0.3183
558.466,0.3079
558.818,0.3228
559.171,0.3124
559.523,0.2991
559.876,0.3085
560.228,0.2973
560.581,0.3073
560.933,0.3004
561.285,0.304
561.638,0.3085
561.99,0.3114
562.342,0.3017
562.694,0.3047
563.046,0.313
563.398,0.3144
563.75,0.3195
564.102,0.3084
564.454,0.3103
564.806,0.3182
565.158,0.3058
565.509,0.3051
565.861,0.3156
566.213,0.3019
566.564,0.3127
566.916,0.3086
567.267,0.3015
567.619,0.3077
567.97,0.319
568.322,0.3015
568.673,0.3152
569.024,0.2999
569.376,0.3089
569.727,0.3082
570.078,0.3026
570.429,0.3146
570.78,0.3084
571.131,0.3095
571.482,0.3201
571.833,0.3106
572.184,0.3091
572.535,0.3179
572.885,0.3203
573.236,0.3205
573.587,0.3191
573.938,0.3205
574.288,0.3198
574.639,0.3185
574.989,0.3091
575.34,0.3205
575.69,0.3189
576.04,0.3103
576.391,0.3076
576.741,0.3161
577.091,0.313
577.442,0.3159
577.792,0.3079
578.142,0.3135
578.492,0.3047
578.842,0.3109
579.192,0.3133
579.542,0.3178
579.892,0.3154
580.241,0.3189
580.591,0.3144
580.941,0.3169
581.291,0.3249
581.64,0.3192
581.99,0.3162
582.339,0.3146
582.689,0.3155
583.038,0.3133
583.388,0.3259
583.737,0.3235
584.086,0.3143
584.436,0.3134
584.785,0.318
585.134,0.3179
585.483,0.3158
585.832,0.3175
586.181,0.3121
586.53,0.3232
586.879,0.3136
587.228,0.3211
587.577,0.3184
587.926,0.3172
588.275,0.315
588.623,0.3191
588.972,0.3172
589.321,0.3233
589.669,0.3196
590.018,0.3274
590.366,0.3169
590.715,0.3255
591.063,0.3233
591.412,0.3191
591.76,0.3165
592.108,0.328
592.456,0.321
592.805,0.3286
593.153,0.3301
593.501,0.3241
593.849,0.3182
594.197,0.3269
594.545,0.3252
594.893,0.3311
595.24,0.3305
595.588,0.3384
595.936,0.3366
596.284,0.3311
596.631,0.3278
596.979,0.3382
597.327,0.3346
597.674,0.3478
598.022,0.333
598.369,0.339
598.716,0.3242
599.064,0.3208
599.411,0.3436
599.758,0.3326
600.105,0.3186
600.453,0.3219
600.8,0.3298
601.147,0.3388
601.494,0.3356
601.841,0.3186
602.188,0.3316
602.535,0.3419
602.881,0.3291
603.228,0.344
603.575,0.3418
603.922,0.3409
604.268,0.3489
604.615,0.3447
604.961,0.3433
605.308,0.3397
605.654,0.3444
606.001,0.3446
606.347,0.3498
606.693,0.3434
607.04,0.3367
607.386,0.3425
607.732,0.3471
608.078,0.3499
608.424,0.3389
608.77,0.3347
609.116,0.3573
609.462,0.3428
609.808,0.3455
610.154,0.349
610.5,0.3417
610.846,0.3492
611.191,0.3428
611.537,0.3526
611.883,0.3525
612.228,0.3494
612.574,0.3609
612.919,0.3486
613.265,0.3392
613.61,0.3478
613.955,0.3498
614.301,0.3439
614.646,0.3449
614.991,0.341
615.336,0.3362
615.681,0.3518
616.026,0.3463
616.371,0.3535
616.716,0.3508
617.061,0.3541
617.406,0.3443
617.751,0.3608
618.096,0.3629
618.44,0.3584
618.785,0.3467
619.13,0.3361
619.474,0.3472
619.819,0.3432
620.163,0.3532
620.508,0.3401
620.852,0.339
621.197,0.3539
621.541,0.3415
621.885,0.3419
622.229,0.3439
622.574,0.3492
622.918,0.3589
623.262,0.3565
623.606,0.3451
623.95,0.3529
624.294,0.3437
624.638,0.3484
624.981,0.3487
625.325,0.3519
625.669,0.3571
626.013,0.3446
626.356,0.3464
626.7,0.3525
627.043,0.3487
627.387,0.3522
627.73,0.353
628.074,0.3477
628.417,0.3481
628.761,0.3524
629.104,0.3471
629.447,0.3473
629.79,0.3513
630.133,0.3557
630.476,0.3435
630.819,0.3515
631.162,0.3399
631.505,0.3527
631.848,0.3485
632.191,0.3552
632.534,0.3546
632.877,0.3521
633.219,0.3448
633.562,0.3488
633.905,0.3582
634.247,0.3407
634.59,0.3489
634.932,0.3536
635.275,0.3468
635.617,0.3456
635.959,0.3516
636.302,0.3477
636.644,0.3611
636.986,0.3554
637.328,0.3533
637.67,0.3457
638.012,0.3546
638.354,0.363
638.696,0.3585
639.038,0.3567
639.38,0.3578
639.722,0.3525
640.064,0.3589
640.405,0.3676
640.747,0.3614
641.089,0.3515
641.43,0.3501
641.772,0.3613
642.113,0.3676
642.455,0.3645
642.796,0.3611
643.137,0.3618
643.479,0.361
643.82,0.3739
644.161,0.3647
644.502,0.3598
644.843,0.367
645.185,0.3595
645.526,0.3742
645.866,0.3697
646.207,0.3682
646.548,0.3562
646.889,0.3824
647.23,0.3781
647.571,0.3799
647.911,0.3768
648.252,0.3607
648.592,0.3706
648.933,0.3758
649.273,0.3827
649.614,0.3859
649.954,0.383
650.295,0.3769
650.635,0.38
650.975,0.3944
651.315,0.3907
651.656,0.3856
651.996,0.3873
652.336,0.3854
652.676,0.3905
653.016,0.3837
653.356,0.4013
653.695,0.3951
654.035,0.384
654.375,0.3797
654.715,0.3787
655.054,0.3919
655.394,0.3978
655.734,0.3916
656.073,0.3882
656.413,0.401
656.752,0.394
657.091,0.3927
657.431,0.399
657.77,0.395
658.109,0.3909
658.449,0.3893
658.788,0.3956
659.127,0.3941
659.466,0.3923
659.805,0.4045
660.144,0.4017
660.483,0.3985
660.822,0.4099
661.16,0.3912
661.499,0.3967
661.838,0.4021
662.177,0.4026
662.515,0.3974
662.854,0.3919
663.192,0.41
663.531,0.3897
663.869,0.3943
664.208,0.3833
664.546,0.3937
664.884,0.3977
665.222,0.4033
665.561,0.4021
665.899,0.3896
666.237,0.396
666.575,0.4097
666.913,0.4169
667.251,0.4034
667.589,0.4232
667.927,0.4013
668.264,0.4051
668.602,0.3948
668.94,0.3974
669.278,0.3932
669.615,0.3962
669.953,0.4022
670.29,0.3938
670.628,0.3915
670.965,0.3819
671.303,0.3878
671.64,0.3797
671.977,0.3962
672.314,0.4082
672.652,0.4023
672.989,0.3977
673.326,0.4031
673.663,0.4011
674,0.4047
674.337,0.3961
674.674,0.3924
675.01,0.3952
675.347,0.4004
675.684,0.3899
676.021,0.3755
676.357,0.3628
676.694,0.3789
677.031,0.3567
677.367,0.3676
677.704,0.3733
678.04,0.3526
678.376,0.356
678.713,0.3568
679.049,0.3669
679.385,0.3798
679.721,0.3595
680.057,0.3723
680.393,0.3632
680.73,0.36
681.065,0.3683
681.401,0.3715
681.737,0.3659
682.073,0.3548
682.409,0.3453
682.745,0.3439
683.08,0.3438
683.416,0.3493
683.752,0.3342
684.087,0.3306
684.423,0.3384
684.758,0.3307
685.093,0.3335
685.429,0.345
685.764,0.332
686.099,0.3381
686.435,0.3313
686.77,0.3364
687.105,0.3338
687.44,0.329
687.775,0.3255
688.11,0.3361
688.445,0.3332
688.78,0.3279
689.114,0.33
689.449,0.3176
689.784,0.3196
690.119,0.313
690.453,0.3231
690.788,0.3139
691.122,0.3111
691.457,0.3103
691.791,0.3012
692.126,0.3052
692.46,0.3017
692.794,0.3107
693.128,0.2921
693.463,0.305
693.797,0.3177
694.131,0.3085
694.465,0.3072
694.799,0.3158
695.133,0.3176
695.467,0.2979
695.801,0.3082
696.134,0.2963
696.468,0.3063
696.802,0.2918
697.135,0.3025
697.469,0.2955
697.803,0.2981
698.136,0.2956
698.47,0.2891
698.803,0.2883
699.136,0.2891
699.47,0.2919
699.803,0.2964
700.136,0.2935
700.469,0.2873
700.802,0.2879
701.135,0.2958
701.468,0.2932
701.801,0.2873
702.134,0.3006
702.467,0.2949
702.8,0.2957
703.133,0.3006
703.465,0.292
703.798,0.2916
704.131,0.2849
704.463,0.2891
704.796,0.2856
705.128,0.2924
705.461,0.2934
705.793,0.2793
706.125,0.2822
706.458,0.2871
706.79,0.2892
707.122,0.2865
707.454,0.2908
707.786,0.279
708.118,0.289
708.45,0.2891
708.782,0.2859
709.114,0.2856
709.446,0.2888
709.778,0.2951
710.11,0.2987
710.441,0.2975
710.773,0.2897
711.104,0.2958
711.436,0.2952
711.768,0.2905
712.099,0.2853
712.43,0.2881
712.762,0.2894
713.093,0.2896
713.424,0.2891
713.755,0.2937
714.087,0.2735
714.418,0.2909
714.749,0.283
715.08,0.2834
715.411,0.2784
715.742,0.2658
716.072,0.2885
716.403,0.2937
716.734,0.2821
717.065,0.2898
717.395,0.2857
717.726,0.2805
718.057,0.2845
718.387,0.2901
718.718,0.2902
719.048,0.2873
719.378,0.2864
719.709,0.2855
720.039,0.283
720.369,0.2854
720.699,0.2846
721.029,0.2791
721.359,0.269
721.689,0.2846
722.019,0.2806
722.349,0.2783
722.679,0.278
723.009,0.2784
723.339,0.2977
723.669,0.2921
723.998,0.296
724.328,0.2958
724.657,0.292
724.987,0.2875
725.316,0.2871
725.646,0.3008
725.975,0.2946
726.305,0.2936
726.634,0.2824
726.963,0.2821
727.292,0.281
727.621,0.2915
727.95,0.2776
728.279,0.2717
728.608,0.2778
728.937,0.2714
729.266,0.2666
729.595,0.2825
729.924,0.2878
730.253,0.2743
730.581,0.2794
730.91,0.2763
731.238,0.2877
731.567,0.2857
731.896,0.289
732.224,0.2829
732.552,0.2785
732.881,0.2767
733.209,0.2751
733.537,0.289
733.865,0.2891
734.194,0.2855
734.522,0.2713
734.85,0.286
735.178,0.2855
735.506,0.271
735.833,0.2841
736.161,0.296
736.489,0.2815
736.817,0.2845
737.144,0.2934
737.472,0.2823
737.8,0.2849
738.127,0.2821
738.455,0.2853
738.782,0.2833
739.11,0.2794
739.437,0.279
739.764,0.2821
740.091,0.2772
740.419,0.2806
740.746,0.2832
741.073,0.2673
741.4,0.2837
741.727,0.2794
742.054,0.277
742.381,0.2657
742.708,0.2718
743.034,0.2916
743.361,0.2826
743.688,0.2882
744.014,0.285
744.341,0.2851
744.668,0.2784
744.994,0.2902
745.321,0.2868
745.647,0.2863
745.973,0.2841
746.3,0.2895
746.626,0.2736
746.952,0.2729
747.278,0.282
747.604,0.2833
747.93,0.2802
748.256,0.2768
748.582,0.2711
748.908,0.2813
749.234,0.2767
749.56,0.2796
749.885,0.2748
750.211,0.2805
750.537,0.2778
750.862,0.2869
751.188,0.2864
751.513,0.2905
751.839,0.2842
752.164,0.2821
752.49,0.2773
752.815,0.2751
753.14,0.2763
753.465,0.2764
753.79,0.2769
754.116,0.2923
754.441,0.2922
754.766,0.289
755.091,0.2896
755.415,0.2694
755.74,0.2748
756.065,0.28
756.39,0.2798
756.714,0.2957
757.039,0.2902
757.364,0.2866
757.688,0.2862
758.013,0.2864
758.337,0.2834
758.662,0.282
758.986,0.2734
759.31,0.2785
759.634,0.2744
759.959,0.2812
760.283,0.2761
760.607,0.2765
760.931,0.2792
761.255,0.2756
761.579,0.2806
761.903,0.2766
762.226,0.2719
762.55,0.2734
762.874,0.2835
763.198,0.2694
763.521,0.2902
763.845,0.2765
764.168,0.291
764.492,0.2846
764.815,0.2878
765.139,0.2921
765.462,0.2836
765.785,0.2802
766.109,0.2685
766.432,0.2811
766.755,0.2759
767.078,0.2713
767.401,0.2866
767.724,0.2611
768.047,0.2695
768.37,0.2816
768.693,0.2843
769.015,0.2739
769.338,0.2779
769.661,0.2908
769.983,0.2782
770.306,0.279
770.628,0.2694
770.951,0.2785
771.273,0.2614
771.596,0.2659
771.918,0.2681
772.24,0.2616
772.562,0.2756
772.885,0.2712
773.207,0.2746
773.529,0.2882
773.851,0.28
774.173,0.2828
774.495,0.2849
774.817,0.2911
775.138,0.2864
775.46,0.2957
775.782,0.3013
776.103,0.294
776.425,0.2805
776.747,0.279
777.068,0.2708
777.39,0.2604
777.711,0.2735
778.032,0.2676
778.354,0.275
778.675,0.2894
778.996,0.2876
779.317,0.2764
779.638,0.2769
779.959,0.2851
780.28,0.282
780.601,0.2744
780.922,0.2896
781.243,0.2809
781.564,0.2681
781.885,0.2655
782.205,0.2762
782.526,0.2426
782.847,0.2666
783.167,0.2672
783.488,0.2724
783.808,0.2589
784.128,0.2546
784.449,0.2709
784.769,0.2625
785.089,0.2651
785.409,0.2652
785.73,0.2825
786.05,0.2616
786.37,0.2758
786.69,0.2714
787.01,0.2834
787.329,0.2663
787.649,0.2678
787.969,0.2643
788.289,0.2645
788.608,0.2556
788.928,0.2719
789.248,0.2637
789.567,0.2763
789.887,0.2779
790.206,0.259
790.525,0.257
790.845,0.2605
791.164,0.2592
791.483,0.2509
791.802,0.2758
792.121,0.2723
792.44,0.2607
792.76,0.2634
793.078,0.2674
793.397,0.2864
793.716,0.2834
794.035,0.2791
794.354,0.2705
794.672,0.2752
794.991,0.2667
795.31,0.2758
795.628,0.2769
795.947,0.2707
796.265,0.2769
796.584,0.277
796.902,0.2683
797.22,0.2522
797.538,0.2624
797.857,0.2676
798.175,0.2758
798.493,0.2814
798.811,0.2733
799.129,0.2701
799.447,0.2693
799.765,0.271
800.083,0.2821
800.4,0.2738
800.718,0.2873
801.036,0.2782
801.353,0.2793
801.671,0.2858
801.988,0.2706
802.306,0.2784
802.623,0.2774
802.941,0.2784
803.258,0.2681
803.575,0.2758
803.892,0.2674
804.21,0.2537
804.527,0.2424
804.844,0.2468
805.161,0.2338
805.478,0.2486
805.795,0.25
806.111,0.249
806.428,0.2669
806.745,0.2846
807.062,0.2831
807.378,0.2698
807.695,0.2797
808.011,0.2944
808.328,0.2816
808.644,0.2978
808.961,0.2745
809.277,0.2838
809.593,0.2834
809.91,0.2719
810.226,0.2882
810.542,0.2684
810.858,0.2734
811.174,0.2591
811.49,0.2728
811.806,0.2689
812.122,0.2832
812.438,0.2774
812.753,0.2718
813.069,0.2681
813.385,0.2634
813.7,0.2581
814.016,0.2544
814.331,0.2682
814.647,0.2669
814.962,0.2826
815.278,0.2669
815.593,0.2699
815.908,0.2576
816.223,0.263
816.538,0.2736
816.854,0.2566
817.169,0.2549
817.484,0.2809
817.799,0.2854
818.113,0.2686
818.428,0.2779
818.743,0.2926
819.058,0.2795
819.372,0.274
819.687,0.2583
820.002,0.2622
820.316,0.26
820.631,0.2735
820.945,0.2654
821.259,0.2621
821.574,0.2716
821.888,0.2644
822.202,0.2554
822.516,0.2611
822.83,0.2556
823.145,0.26
823.459,0.2802
823.772,0.2844
824.086,0.276
824.4,0.2783
824.714,0.2642
825.028,0.2418
825.341,0.2455
825.655,0.2466
825.969,0.2696
826.282,0.2798
826.596,0.2714
826.909,0.2526
827.222,0.2627
827.536,0.2428
827.849,0.2662
828.162,0.2622
828.475,0.2652
828.789,0.2658
829.102,0.2847
829.415,0.2862
829.728,0.2669
830.041,0.269
830.353,0.2586
830.666,0.2691
830.979,0.2749
831.292,0.2731
831.604,0.2627
831.917,0.273
832.229,0.2669
832.542,0.2769
832.854,0.2684
833.167,0.2792
833.479,0.2779
833.791,0.2765
834.104,0.2574
834.416,0.2746
834.728,0.2722
835.04,0.2887
835.352,0.2636
835.664,0.2565
835.976,0.2541
836.288,0.2616
836.599,0.2871
836.911,0.2677
837.223,0.2717
837.535,0.2602
837.846,0.259
838.158,0.2653
838.469,0.2651
838.781,0.2753
839.092,0.2598
839.403,0.257
839.715,0.2735
840.026,0.2687
840.337,0.2692
840.648,0.2662
840.959,0.2573
841.27,0.2516
841.581,0.2604
841.892,0.264
842.203,0.2612
842.514,0.249
842.825,0.2691
843.135,0.2536
843.446,0.2681
843.757,0.2738
844.067,0.2802
844.378,0.2439
844.688,0.2627
844.999,0.2754
845.309,0.2721
845.619,0.2696
845.929,0.2738
846.24,0.2824
846.55,0.2725
846.86,0.2967
847.17,0.2701
847.48,0.2812
847.79,0.2797
848.1,0.2684
848.409,0.2523
848.719,0.2635
849.029,0.2446
849.338,0.2369
849.648,0.2658
849.958,0.2454
850.267,0.2495
850.577,0.2334
850.886,0.2784
851.195,0.2739
851.505,0.2577
851.814,0.2673
852.123,0.2464
852.432,0.2616
852.741,0.2521
853.05,0.2524
853.359,0.2876
853.668,0.3004
853.977,0.2865
854.286,0.2921
854.595,0.2688
854.903,0.2879
855.212,0.2706
855.521,0.249
855.829,0.2934
856.138,0.2729
856.446,0.2861
856.754,0.2914
857.063,0.2734
857.371,0.2513
857.679,0.2984
857.987,0.2894
858.296,0.2611
858.604,0.2795
858.912,0.2695
859.22,0.2576
859.527,0.2614
859.835,0.2959
860.143,0.2675
860.451,0.2515
860.759,0.2597
861.066,0.2514
861.374,0.2522
861.681,0.2545
861.989,0.2699
862.296,0.2718
862.604,0.271
862.911,0.2608
863.218,0.2663
863.526,0.2559
863.833,0.2662
864.14,0.2387
864.447,0.2878
864.754,0.2842
865.061,0.2663
865.368,0.2565
865.675,0.2815
865.981,0.2445
866.288,0.2852
866.595,0.2469
866.901,0.2677
867.208,0.2953
867.515,0.2563
867.821,0.2757
868.127,0.2614
868.434,0.2598
868.74,0.2646
869.046,0.2545
869.353,0.2584
869.659,0.2716
869.965,0.2879
870.271,0.2894
870.577,0.2394
870.883,0.2776
871.189,0.2714
871.495,0.2947
871.8,0.3036
872.106,0.2506
872.412,0.2632
872.717,0.2614
873.023,0.2367
873.329,0.2691
873.634,0.2784
873.939,0.264
874.245,0.2853
874.55,0.2473
874.855,0.2633
875.161,0.2738
875.466,0.2558
875.771,0.2704
876.076,0.2431
876.381,0.2577
876.686,0.2811
876.991,0.2748
877.295,0.2833
877.6,0.25
877.905,0.2678
878.21,0.2761
878.514,0.295
878.819,0.272
879.123,0.2601
879.428,0.2561
879.732,0.242
880.036,0.2725
880.341,0.2604
880.645,0.2652
880.949,0.2491
881.253,0.2798
881.557,0.2934
881.861,0.3069
882.165,0.26
882.469,0.2789
882.773,0.2488
883.077,0.2697
883.381,0.288
883.684,0.2847
883.988,0.235
884.292,0.2986
884.595,0.2556
884.899,0.2717
885.202,0.2951
885.505,0.3113
885.809,0.2824
886.112,0.2471
886.415,0.2458
886.718,0.2823
887.022,0.2828
887.325,0.2607
887.628,0.2834
887.931,0.2572
888.233,0.2242
888.536,0.2825
888.839,0.2458
889.142,0.2349
889.444,0.2449
889.747,0.2921
890.05,0.25
890.352,0.2732
890.655,0.3099
890.957,0.3027
891.259,0.2832
891.562,0.2555
891.864,0.2686
892.166,0.2511
892.468,0.2774
892.77,0.2802
893.072,0.2673
893.374,0.2777
893.676,0.2632
893.978,0.2906
894.28,0.2599
894.582,0.2598
894.883,0.2529
895.185,0.2247
895.487,0.2601
895.788,0.2531
896.09,0.286
896.391,0.2597
896.693,0.2716
896.994,0.2583
897.295,0.2565
897.596,0.2323
897.898,0.2469
898.199,0.2526
898.5,0.2818
898.801,0.2644
899.102,0.2879
899.403,0.2724
899.703,0.2887
900.004,0.2679
900.305,0.2707
900.606,0.2475
900.906,0.2742
901.207,0.2443
901.507,0.2878
901.808,0.251
902.108,0.2474
902.409,0.2276
902.709,0.2446
903.009,0.2596
903.309,0.2793
903.61,0.2452
903.91,0.2445
904.21,0.2327
904.51,0.2413
904.81,0.2238
905.109,0.2378
905.409,0.299
905.709,0.2855
906.009,0.2551
906.308,0.2421
906.608,0.2892
906.907,0.2813
907.207,0.2201
907.506,0.2474
907.806,0.2744
908.105,0.2662
908.404,0.2408
908.704,0.2826
909.003,0.2516
909.302,0.2592
909.601,0.2628
909.9,0.2535
910.199,0.2487
910.498,0.2519
910.797,0.2688
911.095,0.2525
911.394,0.2502
911.693,0.2708
911.991,0.3163
912.29,0.2765
912.589,0.2629
912.887,0.2674
913.185,0.2758
913.484,0.2763
913.782,0.2631
914.08,0.2876
914.378,0.2765
914.677,0.2688
914.975,0.2681
915.273,0.2646
915.571,0.2961
915.869,0.2495
916.166,0.2788
916.464,0.2889
916.762,0.3055
917.06,0.272
917.357,0.2982
917.655,0.2766
917.952,0.2746
918.25,0.3123
918.547,0.2866
918.845,0.2707
919.142,0.2958
919.439,0.2937
919.736,0.2656
920.034,0.2459
920.331,0.32
920.628,0.2832
920.925,0.3021
921.222,0.2262
921.518,0.2475
921.815,0.2767
922.112,0.2822
922.409,0.2691
922.705,0.3161
923.002,0.2298
923.299,0.2244
923.595,0.2395
923.891,0.2412
924.188,0.2062
924.484,0.2933
924.78,0.2452
925.077,0.2619
925.373,0.2776
925.669,0.2804
925.965,0.2373
926.261,0.2911
926.557,0.2428
926.853,0.2753
927.149,0.2498
927.444,0.3523
927.74,0.279
928.036,0.3306
928.331,0.2837
928.627,0.2794
928.923,0.2336
929.218,0.2476
929.513,0.274
929.809,0.336
930.104,0.2302
930.399,0.2824
930.694,0.2131
930.99,0.2291
931.285,0.2593
931.58,0.3113
931.875,0.3481
932.169,0.2334
932.464,0.3013
932.759,0.2747
933.054,0.2842
933.348,0.2724
933.643,0.3225
933.938,0.2939
934.232,0.2629
934.527,0.2043
934.821,0.328
935.115,0.2616
935.41,0.2518
935.704,0.352
935.998,0.3004
936.292,0.2735
936.586,0.305
936.88,0.2798
937.174,0.3264
937.468,0.2431
937.762,0.3121
938.056,0.283
938.35,0.2779
938.643,0.3478
938.937,0.3037
939.23,0.2614
939.524,0.2493
939.817,0.2238
940.111,0.3343
940.404,0.2707
940.698,0.2457
940.991,0.3264
941.284,0.353
941.577,0.2921
941.87,0.4027
942.163,0.2868
942.456,0.3244
942.749,0.2248
943.042,0.2959
943.335,0.2032
943.628,0.2533
943.92,0.3508
944.213,0.1363
944.505,0.221
944.798,0.2674
945.09,0.3019
945.383,0.251
945.675,0.3293
945.967,0.2756
946.26,0.2807
946.552,0.2433
946.844,0.1897
947.136,0.3406
947.428,-0
947.72,0.2009
948.012,0.5
948.304,0.237
948.596,0.0897
948.887,0.5669
949.179,0.4541
949.471,0.3765
949.762,0.423
950.054,0.2987
950.345,0.1152
950.637,0.2686
950.928,0.1912
951.219,0.2078
951.511,0.3731
951.802,0.0138
952.093,0.5252
952.384,0.5001
952.675,0.3486
952.966,0.3868
953.257,0.2632
953.548,0.4169
953.839,0.2354
954.13,0.2627
954.42,0.2459
954.711,0.4115
955.001,0.4358
955.292,0.1509
955.582,0.364
955.873,0.1958
956.163,0.2099
956.454,0.8721
956.744,0.3019
957.034,0.3362
957.324,0.1956
957.614,0.2833
957.904,0.2522
958.194,0.3608
958.484,0.2989
958.774,0.2371
959.064,0.1408
959.353,0.2863
959.643,0.5431
959.933,0.4827
960.222,0.3075
960.512,0.401
960.801,0.2327
961.091,0.1025
961.38,0.2607
961.669,0.294
961.959,0.1123
962.248,0.0984
962.537,0.1594
962.826,0.3265
963.115,0.149
963.404,0.2605
963.693,0.3678
963.982,0.2889
964.271,0.3868
964.559,0.3734
964.848,0.5888
965.137,0.6132
965.425,0.2599
965.714,0.1356
966.002,0.4547
966.291,0.1891
966.579,0.3121
966.867,0.3377
967.156,0.2065
967.444,0.3021
967.732,0.4689
968.02,0.4553
968.308,0.4828
968.596,0.3174
968.884,-0.0021
969.172,0.2181
969.459,0.1663
969.747,0.2154
970.035,0.3432
970.322,0.2847
970.61,0.399
970.898,0.2667
971.185,0.1979
971.472,0.209
971.76,0.2779
972.047,0.1481
972.334,0.1865
972.621,0.1563
972.909,0.5561
973.196,0.6175
973.483,0.3065
973.77,0.4297
974.056,0.4408
974.343,0.267
974.63,0.3861
974.917,0.5233
975.203,0.1251
975.49,0.556
975.777,0.0748
976.063,0.4215
976.35,0.2065
976.636,0.2825
976.922,0.2359
977.209,0.3237
977.495,0.3052
977.781,0.5945
978.067,0.2014
978.353,0.3747
978.639,0.4186
978.925,0.3315
979.211,0.2505
979.497,0.3952
979.782,0.2319
980.068,0.2947
980.354,0.2482
980.639,1.3015
980.925,0.1335
981.21,0.4128
981.496,0.3109
981.781,0.1607
982.067,0.1954
982.352,0.3419
982.637,0.2277
982.922,0.4432
983.207,0.6024
983.492,0.1154
983.777,0.4563
984.062,0.1599
984.347,0.253
984.632,0.3967
984.917,-0
985.201,0.246
985.486,0.2403
985.771,0.7093
986.055,0.2784
986.34,0.1668
986.624,-0.0031
986.908,0.6096
987.193,0.3023
987.477,0.331
987.761,0.1987
988.045,0.4234
988.329,-0
988.613,0.6665
988.897,-0
989.181,0.4031
989.465,0.1384
989.749,0.0021
990.032,0.4408
990.316,0.1751
990.6,0.7319
990.883,-0.0832
991.167,0.1707
991.45,0.3342
991.734,0.0188
992.017,0.2087
992.3,0.2742
992.583,0.6564
992.867,0.0754
993.15,0.0357
993.433,0.2081
993.716,0.2271
993.999,0.1318
994.282,0.2505
994.564,0.3079
994.847,0.3356
995.13,-0
995.413,0.5419
995.695,0.0294
995.978,-0.0445
996.26,0.4316
996.543,0.2186
996.825,-0.0511
997.107,0.0616
997.389,-0
997.672,-0
997.954,0.3713
998.236,0.0142
998.518,0.2481
998.8,0.26
999.082,0.6708
999.364,-0.8008
999.645,-0
999.927,0.4506
1000.209,0.3796
1000.491,0.248
1000.772,0.2368
1001.054,1.2801
1001.335,0.1333
1001.616,0.0655
1001.898,-0
1002.179,0.1805
1002.46,0.2895
1002.742,-0.2531
1003.023,0.4502
1003.304,0.03
1003.585,0.1635
1003.866,0.2345
1004.147,0.8954
1004.427,-0
1004.708,0.0233
1004.989,-0.2813
1005.269,0.6336
1005.55,-0
1005.831,-0.028
1006.111,-0.0498
1006.392,0.6977
1006.672,0.2632
1006.952,0.5818
1007.232,-0
1007.513,-0.5612
1007.793,-0
1008.073,-0.3745
1008.353,0.2917
1008.633,0.0028
1008.913,-0
1009.193,-0
1009.472,-0
1009.752,-0
1010.032,2.4023
1010.312,0.8698
1010.591,-0
1010.871,-0.0344
1011.15,0.3894
1011.429,-0.3843
1011.709,0.0242
1011.988,-0
1012.267,-0
1012.547,-0.6335
1012.826,-0
1013.105,-0
1013.384,-0.6076
1013.663,-0
1013.941,0.2776
1014.22,-0
1014.499,0.3787
1014.778,0.2874
1015.056,0.2649
1015.335,0.0116
1015.614,0.1114
1015.892,-0.1088
1016.17,-0
1016.449,0.0387
1016.727,1.7238
1017.005,-0
1017.284,-0
1017.562,-0
