wave-length (nm),A
339.78,0.8999
340.159,0.8999
340.537,0.8999
340.915,-0
341.293,-0.3876
341.671,-0
342.049,0.1229
342.427,-0
342.805,0.0178
343.183,-0.6225
343.561,-0.3874
343.939,0.6605
344.317,-0.4704
344.694,-0.7852
345.072,0.2276
345.45,-0
345.827,0.1726
346.205,-0.0905
346.583,2.6425
346.96,-1.5036
347.338,-0
347.715,0.6036
348.092,-0
348.47,0.6049
348.847,-0
349.224,-0.2753
349.601,0.5664
349.979,0.2409
350.356,-0.0415
350.733,-0
351.11,0.7796
351.487,-0
351.864,-0
352.241,-0
352.618,-0.4625
352.995,-0.0811
353.372,-0
353.748,-0
354.125,0.1852
354.502,0.2218
354.878,-0.0455
355.255,0.2071
355.632,-0.1337
356.008,0.2953
356.385,-0
356.761,-0.412
357.137,-0
357.514,0.1832
357.89,-0
358.266,-0.7013
358.643,1.7487
359.019,-0
359.395,-0.182
359.771,0.6004
360.147,-0
360.523,-0.2218
360.899,0.4741
361.275,-0.2143
361.651,-0.0027
362.027,-0.0632
362.403,-0.0805
362.779,-0.8862
363.155,-0
363.53,0.9553
363.906,0.3624
364.282,1.5539
364.657,0.6507
365.033,0.0917
365.408,0.2686
365.784,0.0315
366.159,0.1728
366.535,-0.0057
366.91,0.3155
367.285,-0.0138
367.66,-0.0024
368.036,-0.9678
368.411,0.2868
368.786,0.4223
369.161,0.1162
369.536,0.7669
369.911,-0.2016
370.286,-0
370.661,0.0165
371.036,0.0148
371.411,-0.1937
371.786,0.0485
372.16,0.3394
372.535,-0
372.91,0.129
373.285,1.161
373.659,0.0518
374.034,0.1847
374.408,-0.4049
374.783,0.6011
375.157,0.9928
375.532,0.4963
375.906,-0.9434
376.28,-0.1012
376.655,0.0716
377.029,0.2392
377.403,0.2991
377.777,0.4992
378.151,0.0187
378.525,0.9364
378.899,0.2148
379.273,0.1048
379.647,0.3665
380.021,0.7493
380.395,0.1617
380.769,-0
381.143,0.2402
381.517,0.2259
381.89,0.881
382.264,0.3043
382.638,-0.1028
383.011,0.359
383.385,0.3821
383.758,0.1516
384.132,0.2338
384.505,0.2544
384.878,0.5651
385.252,0.046
385.625,1.0815
385.998,0.3716
386.372,0.7475
386.745,0.2152
387.118,0.2686
387.491,-0.0104
387.864,0.2117
388.237,0.7864
388.61,0.6468
388.983,0.3138
389.356,0.5039
389.729,0.2876
390.101,0.1474
390.474,0.6146
390.847,0.27
391.219,0.2422
391.592,0.3377
391.965,0.6983
392.337,0.2011
392.71,0.1865
393.082,0.2365
393.455,0.4765
393.827,0.234
394.199,0.2477
394.572,0.6049
394.944,0.1954
395.316,0.3925
395.688,0.4983
396.06,0.1397
396.433,0.2714
396.805,0.3174
397.177,0.3527
397.549,0.1916
397.92,0.3644
398.292,0.4367
398.664,0.1702
399.036,0.3883
399.408,0.1479
399.779,0.3795
400.151,0.3651
400.523,0.3125
400.894,0.4343
401.266,0.4926
401.637,0.3933
402.009,0.2537
402.38,0.2943
402.752,0.4509
403.123,0.3139
403.494,0.4255
403.866,0.4061
404.237,0.4584
404.608,0.3265
404.979,0.1488
405.35,0.3331
405.721,0.4782
406.092,0.2771
406.463,0.1635
406.834,0.3989
407.205,0.4111
407.576,0.2485
407.947,0.3504
408.317,0.2781
408.688,0.392
409.059,0.3793
409.429,0.2541
409.8,0.3153
410.171,0.2708
410.541,0.2758
410.912,0.3664
411.282,0.2943
411.652,0.2912
412.023,0.1786
412.393,0.2182
412.763,0.2314
413.133,0.3151
413.504,0.3317
413.874,0.315
414.244,0.3139
414.614,0.2322
414.984,0.2986
415.354,0.3176
415.724,0.4088
416.094,0.3261
416.463,0.3017
416.833,0.2492
417.203,0.3262
417.573,0.3294
417.942,0.271
418.312,0.2251
418.682,0.2236
419.051,0.2549
419.421,0.3321
419.79,0.2338
420.159,0.2833
420.529,0.282
420.898,0.3239
421.267,0.2918
421.637,0.3423
422.006,0.3582
422.375,0.2963
422.744,0.3826
423.113,0.2563
423.482,0.3545
423.851,0.329
424.22,0.3415
424.589,0.3008
424.958,0.3667
425.327,0.346
425.695,0.2703
426.064,0.2798
426.433,0.3766
426.802,0.3114
427.17,0.3711
427.539,0.2807
427.907,0.2822
428.276,0.271
428.644,0.2659
429.013,0.2657
429.381,0.2516
429.749,0.2739
430.118,0.2685
430.486,0.3145
430.854,0.292
431.222,0.2939
431.59,0.3498
431.958,0.3145
432.326,0.2633
432.694,0.2678
433.062,0.3405
433.43,0.2492
433.798,0.2794
434.166,0.3121
434.533,0.2215
434.901,0.2741
435.269,0.2287
435.636,0.253
436.004,0.2715
436.372,0.2805
436.739,0.3055
437.107,0.2924
437.474,0.3181
437.841,0.2536
438.209,0.3171
438.576,0.2672
438.943,0.2886
439.31,0.2472
439.678,0.2933
440.045,0.2748
440.412,0.2382
440.779,0.2844
441.146,0.292
441.513,0.2928
441.88,0.277
442.247,0.2674
442.613,0.287
442.98,0.3029
443.347,0.2633
443.714,0.3153
444.08,0.3021
444.447,0.2883
444.813,0.2528
445.18,0.3167
445.546,0.316
445.913,0.2646
446.279,0.244
446.646,0.258
447.012,0.2736
447.378,0.3175
447.744,0.283
448.111,0.3044
448.477,0.2681
448.843,0.3264
449.209,0.2881
449.575,0.2396
449.941,0.2321
450.307,0.3072
450.673,0.2776
451.039,0.2835
451.404,0.2812
451.77,0.2628
452.136,0.2993
452.502,0.294
452.867,0.2618
453.233,0.2834
453.598,0.264
453.964,0.2722
454.329,0.292
454.695,0.3038
455.06,0.2906
455.425,0.2918
455.791,0.2973
456.156,0.2902
456.521,0.2935
456.886,0.2833
457.251,0.2882
457.616,0.2836
457.981,0.2999
458.346,0.2885
458.711,0.2772
459.076,0.2663
459.441,0.2625
459.806,0.3037
460.171,0.2609
460.535,0.2889
460.9,0.2793
461.265,0.2811
461.629,0.284
461.994,0.2496
462.358,0.2891
462.723,0.269
463.087,0.3071
463.452,0.2951
463.816,0.2771
464.18,0.2606
464.544,0.2946
464.909,0.262
465.273,0.2631
465.637,0.2823
466.001,0.2454
466.365,0.2805
466.729,0.2801
467.093,0.2703
467.457,0.2797
467.821,0.2655
468.185,0.2653
468.548,0.2771
468.912,0.2919
469.276,0.266
469.639,0.2773
470.003,0.283
470.367,0.256
470.73,0.2737
471.094,0.2779
471.457,0.28
471.82,0.2844
472.184,0.2821
472.547,0.2743
472.91,0.2945
473.274,0.2572
473.637,0.2732
474,0.27
474.363,0.2741
474.726,0.2668
475.089,0.2817
475.452,0.2718
475.815,0.2752
476.178,0.3112
476.54,0.2948
476.903,0.2833
477.266,0.2889
477.629,0.276
477.991,0.2669
478.354,0.276
478.716,0.2885
479.079,0.2695
479.441,0.2852
479.804,0.3007
480.166,0.2839
480.529,0.2853
480.891,0.2624
481.253,0.2656
481.615,0.274
481.978,0.2822
482.34,0.2842
482.702,0.2807
483.064,0.2808
483.426,0.2673
483.788,0.2798
484.15,0.2652
484.512,0.2806
484.873,0.2803
485.235,0.2601
485.597,0.2695
485.959,0.2861
486.32,0.2735
486.682,0.2755
487.043,0.2779
487.405,0.2737
487.766,0.272
488.128,0.282
488.489,0.2781
488.85,0.2753
489.212,0.2857
489.573,0.285
489.934,0.2645
490.295,0.2749
490.657,0.2785
491.018,0.2787
491.379,0.2751
491.74,0.2666
492.101,0.2745
492.461,0.2864
492.822,0.2717
493.183,0.2838
493.544,0.2826
493.905,0.2779
494.265,0.2635
494.626,0.2786
494.987,0.2892
495.347,0.2839
495.708,0.2599
496.068,0.2688
496.429,0.2665
496.789,0.2753
497.149,0.2661
497.509,0.2691
497.87,0.2608
498.23,0.269
498.59,0.269
498.95,0.2753
499.31,0.2778
499.67,0.2728
500.03,0.2746
500.39,0.2721
500.75,0.2618
501.11,0.26
501.47,0.2655
501.83,0.2664
502.189,0.2656
502.549,0.28
502.909,0.2684
503.268,0.2567
503.628,0.2644
503.987,0.2608
504.347,0.2763
504.706,0.2786
505.065,0.2806
505.425,0.2704
505.784,0.2785
506.143,0.2712
506.502,0.2663
506.862,0.2736
507.221,0.2771
507.58,0.2679
507.939,0.2715
508.298,0.2614
508.657,0.264
509.015,0.2853
509.374,0.2755
509.733,0.2821
510.092,0.2574
510.451,0.274
510.809,0.2808
511.168,0.2902
511.526,0.2813
511.885,0.2731
512.243,0.2717
512.602,0.2686
512.96,0.2854
513.319,0.2736
513.677,0.2582
514.035,0.2722
514.393,0.2687
514.751,0.2761
515.11,0.2709
515.468,0.2685
515.826,0.2675
516.184,0.2815
516.542,0.268
516.9,0.2661
517.257,0.2597
517.615,0.2689
517.973,0.2589
518.331,0.2626
518.688,0.2582
519.046,0.2636
519.404,0.2801
519.761,0.2593
520.119,0.2725
520.476,0.2692
520.834,0.2644
521.191,0.271
521.548,0.2607
521.906,0.265
522.263,0.2748
522.62,0.2708
522.977,0.2658
523.334,0.256
523.691,0.2609
524.048,0.2646
524.405,0.2624
524.762,0.2631
525.119,0.2654
525.476,0.2827
525.833,0.264
526.189,0.266
526.546,0.2641
526.903,0.2621
527.259,0.2502
527.616,0.2586
527.973,0.2679
528.329,0.2632
528.685,0.2562
529.042,0.2624
529.398,0.2617
529.755,0.2674
530.111,0.2686
530.467,0.2568
530.823,0.2704
531.179,0.2511
531.535,0.2549
531.891,0.2494
532.247,0.2557
532.603,0.2675
532.959,0.266
533.315,0.2601
533.671,0.261
534.027,0.2703
534.382,0.2765
534.738,0.2673
535.094,0.2602
535.449,0.2681
535.805,0.2545
536.16,0.2421
536.516,0.2511
536.871,0.2512
537.226,0.2473
537.582,0.243
537.937,0.2562
538.292,0.2549
538.647,0.2632
539.003,0.2618
539.358,0.2676
539.713,0.2585
540.068,0.2688
540.423,0.2686
540.778,0.2618
541.132,0.2506
541.487,0.2613
541.842,0.2493
542.197,0.2423
542.552,0.2415
542.906,0.2464
543.261,0.2537
543.615,0.2605
543.97,0.2623
544.324,0.2562
544.679,0.2768
545.033,0.2681
545.387,0.2731
545.742,0.2619
546.096,0.2713
546.45,0.2647
546.804,0.2629
547.158,0.2667
547.512,0.2657
547.866,0.2491
548.22,0.2434
548.574,0.2585
548.928,0.2527
549.282,0.2486
549.636,0.2605
549.99,0.2666
550.343,0.2619
550.697,0.2638
551.05,0.262
551.404,0.2638
551.758,0.2498
552.111,0.2577
552.464,0.2525
552.818,0.2476
553.171,0.259
553.524,0.257
553.878,0.2699
554.231,0.2605
554.584,0.2687
554.937,0.2697
555.29,0.265
555.643,0.2562
555.996,0.2619
556.349,0.2577
556.702,0.2615
557.055,0.2651
557.408,0.2646
557.76,0.2598
558.113,0.2668
558.466,0.2608
558.818,0.264
559.171,0.259
559.523,0.2532
559.876,0.2727
560.228,0.262
560.581,0.2612
560.933,0.2592
561.285,0.2698
561.638,0.2623
561.99,0.2607
562.342,0.259
562.694,0.2557
563.046,0.2674
563.398,0.2647
563.75,0.27
564.102,0.2665
564.454,0.2612
564.806,0.2685
565.158,0.2648
565.509,0.2639
565.861,0.2722
566.213,0.2654
566.564,0.2676
566.916,0.276
567.267,0.2608
567.619,0.2652
567.97,0.275
568.322,0.2611
568.673,0.2616
569.024,0.2612
569.376,0.2709
569.727,0.2612
570.078,0.2588
570.429,0.2636
570.78,0.2571
571.131,0.2647
571.482,0.2658
571.833,0.2657
572.184,0.2588
572.535,0.2702
572.885,0.2656
573.236,0.2608
573.587,0.2572
573.938,0.2659
574.288,0.2684
574.639,0.2733
574.989,0.2534
575.34,0.2634
575.69,0.2749
576.04,0.2656
576.391,0.2602
576.741,0.2616
577.091,0.2687
577.442,0.2622
577.792,0.257
578.142,0.2618
578.492,0.2599
578.842,0.2625
579.192,0.2659
579.542,0.2682
579.892,0.2695
580.241,0.2648
580.591,0.2736
580.941,0.2727
581.291,0.2749
581.64,0.273
581.99,0.261
582.339,0.2641
582.689,0.2666
583.038,0.2725
583.388,0.2639
583.737,0.2638
584.086,0.2596
584.436,0.2554
584.785,0.2592
585.134,0.2681
585.483,0.2631
585.832,0.2508
586.181,0.2659
586.53,0.267
586.879,0.2633
587.228,0.265
587.577,0.2711
587.926,0.2607
588.275,0.2616
588.623,0.2664
588.972,0.2668
589.321,0.271
589.669,0.2653
590.018,0.2642
590.366,0.2567
590.715,0.2674
591.063,0.2657
591.412,0.2697
591.76,0.2738
592.108,0.2759
592.456,0.2698
592.805,0.2706
593.153,0.2662
593.501,0.2703
593.849,0.2628
594.197,0.2709
594.545,0.2692
594.893,0.2802
595.24,0.2705
595.588,0.2903
595.936,0.2785
596.284,0.2687
596.631,0.2673
596.979,0.2779
597.327,0.2825
597.674,0.283
598.022,0.2852
598.369,0.2797
598.716,0.2732
599.064,0.2745
599.411,0.2706
599.758,0.2784
600.105,0.2762
600.453,0.2773
600.8,0.2787
601.147,0.2801
601.494,0.2768
601.841,0.2682
602.188,0.2677
602.535,0.273
602.881,0.2743
603.228,0.2812
603.575,0.2826
603.922,0.2792
604.268,0.2878
604.615,0.2811
604.961,0.2802
605.308,0.2825
605.654,0.2832
606.001,0.2763
606.347,0.2844
606.693,0.28
607.04,0.2776
607.386,0.2809
607.732,0.2924
608.078,0.2946
608.424,0.2873
608.77,0.2824
609.116,0.2797
609.462,0.28
609.808,0.283
610.154,0.2948
610.5,0.2855
610.846,0.2852
611.191,0.2804
611.537,0.283
611.883,0.2908
612.228,0.2945
612.574,0.2898
612.919,0.2831
613.265,0.2852
613.61,0.2846
613.955,0.2864
614.301,0.2875
614.646,0.281
614.991,0.2822
615.336,0.2822
615.681,0.288
616.026,0.2813
616.371,0.2882
616.716,0.291
617.061,0.2878
617.406,0.2855
617.751,0.2866
618.096,0.2841
618.44,0.2976
618.785,0.2827
619.13,0.2843
619.474,0.2885
619.819,0.2836
620.163,0.287
620.508,0.2822
620.852,0.2875
621.197,0.2866
621.541,0.2838
621.885,0.2858
622.229,0.2924
622.574,0.2923
622.918,0.2964
623.262,0.2821
623.606,0.2841
623.95,0.2826
624.294,0.2827
624.638,0.2951
624.981,0.2885
625.325,0.2989
625.669,0.2906
626.013,0.2842
626.356,0.2844
626.7,0.2872
627.043,0.2862
627.387,0.2918
627.73,0.2957
628.074,0.2828
628.417,0.2794
628.761,0.289
629.104,0.2872
629.447,0.2908
629.79,0.2835
630.133,0.2897
630.476,0.2866
630.819,0.2914
631.162,0.2881
631.505,0.2847
631.848,0.29
632.191,0.287
632.534,0.2995
632.877,0.2899
633.219,0.2865
633.562,0.2792
633.905,0.2959
634.247,0.2802
634.59,0.293
634.932,0.2851
635.275,0.2803
635.617,0.2868
635.959,0.2878
636.302,0.2863
636.644,0.2944
636.986,0.2841
637.328,0.2844
637.67,0.2902
638.012,0.2883
638.354,0.3052
638.696,0.2998
639.038,0.2931
639.38,0.2891
639.722,0.2895
640.064,0.2995
640.405,0.2953
640.747,0.3063
641.089,0.2901
641.43,0.2837
641.772,0.2942
642.113,0.2919
642.455,0.2953
642.796,0.2903
643.137,0.2893
643.479,0.297
643.82,0.3011
644.161,0.3037
644.502,0.3067
644.843,0.3034
645.185,0.302
645.526,0.3104
645.866,0.3122
646.207,0.3065
646.548,0.306
646.889,0.3149
647.23,0.3138
647.571,0.3104
647.911,0.3112
648.252,0.2923
648.592,0.3015
648.933,0.305
649.273,0.3085
649.614,0.3078
649.954,0.3029
650.295,0.2972
650.635,0.3132
650.975,0.3235
651.315,0.3171
651.656,0.3215
651.996,0.3167
652.336,0.3147
652.676,0.3244
653.016,0.3177
653.356,0.3263
653.695,0.3203
654.035,0.3116
654.375,0.3037
654.715,0.3115
655.054,0.317
655.394,0.3288
655.734,0.3229
656.073,0.3129
656.413,0.3308
656.752,0.3228
657.091,0.3028
657.431,0.325
657.77,0.3246
658.109,0.3197
658.449,0.3139
658.788,0.3198
659.127,0.3227
659.466,0.3213
659.805,0.3312
660.144,0.3363
660.483,0.3303
660.822,0.3349
661.16,0.3247
661.499,0.3337
661.838,0.3359
662.177,0.3198
662.515,0.3279
662.854,0.3274
663.192,0.3276
663.531,0.3138
663.869,0.3154
664.208,0.316
664.546,0.3198
664.884,0.3201
665.222,0.3294
665.561,0.328
665.899,0.3182
666.237,0.3291
666.575,0.3387
666.913,0.3354
667.251,0.3428
667.589,0.3565
667.927,0.3344
668.264,0.3457
668.602,0.3276
668.94,0.3244
669.278,0.3241
669.615,0.3169
669.953,0.3108
670.29,0.3131
670.628,0.3092
670.965,0.3072
671.303,0.3053
671.64,0.3096
671.977,0.3211
672.314,0.3304
672.652,0.3204
672.989,0.328
673.326,0.323
673.663,0.3224
674,0.3254
674.337,0.3195
674.674,0.3236
675.01,0.3205
675.347,0.312
675.684,0.3118
676.021,0.306
676.357,0.2882
676.694,0.3043
677.031,0.2792
677.367,0.286
677.704,0.2818
678.04,0.2833
678.376,0.2823
678.713,0.2894
679.049,0.2942
679.385,0.3008
679.721,0.293
680.057,0.2913
680.393,0.2986
680.73,0.2895
681.065,0.301
681.401,0.3019
681.737,0.3035
682.073,0.2882
682.409,0.282
682.745,0.2797
683.08,0.2659
683.416,0.273
683.752,0.2664
684.087,0.2621
684.423,0.2599
684.758,0.259
685.093,0.2658
685.429,0.2647
685.764,0.2623
686.099,0.2709
686.435,0.2627
686.77,0.2641
687.105,0.2642
687.44,0.2537
687.775,0.263
688.11,0.2606
688.445,0.259
688.78,0.2561
689.114,0.2575
689.449,0.2532
689.784,0.2482
690.119,0.2486
690.453,0.26
690.788,0.2432
691.122,0.2419
691.457,0.2486
691.791,0.2358
692.126,0.2446
692.46,0.2336
692.794,0.2342
693.128,0.2239
693.463,0.2347
693.797,0.2413
694.131,0.2433
694.465,0.2297
694.799,0.2426
695.133,0.2461
695.467,0.2354
695.801,0.2407
696.134,0.2375
696.468,0.2392
696.802,0.2323
697.135,0.2304
697.469,0.2215
697.803,0.2308
698.136,0.2324
698.47,0.2159
698.803,0.2136
699.136,0.2144
699.47,0.2278
699.803,0.2273
700.136,0.2168
700.469,0.2144
700.802,0.2173
701.135,0.2293
701.468,0.2194
701.801,0.2142
702.134,0.236
702.467,0.2241
702.8,0.225
703.133,0.2357
703.465,0.2264
703.798,0.2175
704.131,0.2188
704.463,0.2121
704.796,0.2191
705.128,0.2279
705.461,0.222
705.793,0.2191
706.125,0.209
706.458,0.2133
706.79,0.2139
707.122,0.2172
707.454,0.2197
707.786,0.2119
708.118,0.2204
708.45,0.2155
708.782,0.2135
709.114,0.2109
709.446,0.1999
709.778,0.2159
710.11,0.2183
710.441,0.2234
710.773,0.2143
711.104,0.2084
711.436,0.2262
711.768,0.2154
712.099,0.2177
712.43,0.2091
712.762,0.2041
713.093,0.2286
713.424,0.2175
713.755,0.2122
714.087,0.2089
714.418,0.215
714.749,0.2126
715.08,0.2234
715.411,0.2141
715.742,0.2134
716.072,0.2212
716.403,0.2234
716.734,0.2208
717.065,0.2161
717.395,0.2081
717.726,0.2052
718.057,0.2076
718.387,0.2093
718.718,0.2171
719.048,0.2052
719.378,0.2039
719.709,0.2101
720.039,0.2135
720.369,0.2057
720.699,0.2048
721.029,0.2132
721.359,0.2181
721.689,0.2103
722.019,0.2062
722.349,0.2088
722.679,0.2208
723.009,0.2042
723.339,0.2154
723.669,0.2091
723.998,0.2256
724.328,0.2231
724.657,0.2204
724.987,0.2234
725.316,0.2041
725.646,0.2239
725.975,0.2187
726.305,0.2102
726.634,0.2048
726.963,0.1982
727.292,0.1983
727.621,0.2118
727.95,0.2224
728.279,0.2076
728.608,0.2104
728.937,0.2058
729.266,0.2114
729.595,0.2164
729.924,0.2116
730.253,0.2034
730.581,0.2039
730.91,0.2073
731.238,0.2041
731.567,0.2157
731.896,0.2107
732.224,0.2117
732.552,0.2103
732.881,0.2021
733.209,0.2019
733.537,0.2074
733.865,0.2022
734.194,0.2044
734.522,0.2059
734.85,0.2125
735.178,0.2125
735.506,0.2034
735.833,0.2147
736.161,0.2208
736.489,0.2108
736.817,0.2145
737.144,0.2136
737.472,0.2094
737.8,0.2214
738.127,0.2171
738.455,0.217
738.782,0.2128
739.11,0.2017
739.437,0.2015
739.764,0.2028
740.091,0.1999
740.419,0.2032
740.746,0.1929
741.073,0.2022
741.4,0.2014
741.727,0.2086
742.054,0.1984
742.381,0.2016
742.708,0.2067
743.034,0.2157
743.361,0.2195
743.688,0.2137
744.014,0.2123
744.341,0.2081
744.668,0.2059
744.994,0.2155
745.321,0.1982
745.647,0.1977
745.973,0.2047
746.3,0.2119
746.626,0.2
746.952,0.2043
747.278,0.2021
747.604,0.1983
747.93,0.1965
748.256,0.2053
748.582,0.1917
748.908,0.1926
749.234,0.1956
749.56,0.2079
749.885,0.2072
750.211,0.2088
750.537,0.2103
750.862,0.2099
751.188,0.204
751.513,0.2102
751.839,0.2068
752.164,0.2052
752.49,0.1917
752.815,0.204
753.14,0.1935
753.465,0.1988
753.79,0.1983
754.116,0.2101
754.441,0.1923
754.766,0.2005
755.091,0.208
755.415,0.1995
755.74,0.1959
756.065,0.2039
756.39,0.2045
756.714,0.2157
757.039,0.2223
757.364,0.2056
757.688,0.206
758.013,0.2165
758.337,0.2144
758.662,0.2078
758.986,0.2066
759.31,0.2111
759.634,0.1904
759.959,0.1918
760.283,0.1958
760.607,0.1983
760.931,0.206
761.255,0.1984
761.579,0.1905
761.903,0.1975
762.226,0.1864
762.55,0.1992
762.874,0.2012
763.198,0.1948
763.521,0.1946
763.845,0.2058
764.168,0.2051
764.492,0.2048
764.815,0.2133
765.139,0.2155
765.462,0.1951
765.785,0.2031
766.109,0.2053
766.432,0.2109
766.755,0.203
767.078,0.1886
767.401,0.1911
767.724,0.1963
768.047,0.1917
768.37,0.1964
768.693,0.205
769.015,0.202
769.338,0.2095
769.661,0.2062
769.983,0.2044
770.306,0.2018
770.628,0.184
770.951,0.1987
771.273,0.1719
771.596,0.1893
771.918,0.1802
772.24,0.1832
772.562,0.1835
772.885,0.1905
773.207,0.1966
773.529,0.1888
773.851,0.1963
774.173,0.2114
774.495,0.2161
774.817,0.212
775.138,0.2065
775.46,0.2156
775.782,0.1996
776.103,0.203
776.425,0.2073
776.747,0.1959
777.068,0.1909
777.39,0.1944
777.711,0.1928
778.032,0.1881
778.354,0.1886
778.675,0.2095
778.996,0.1986
779.317,0.2016
779.638,0.2033
779.959,0.2048
780.28,0.2055
780.601,0.1994
780.922,0.1857
781.243,0.1988
781.564,0.195
781.885,0.1875
782.205,0.2046
782.526,0.162
782.847,0.1951
783.167,0.1853
783.488,0.1944
783.808,0.1967
784.128,0.1695
784.449,0.1875
784.769,0.1854
785.089,0.1899
785.409,0.1835
785.73,0.1853
786.05,0.1853
786.37,0.191
786.69,0.1902
787.01,0.1931
787.329,0.2039
787.649,0.1995
787.969,0.1903
788.289,0.1785
788.608,0.1864
788.928,0.1818
789.248,0.1997
789.567,0.1946
789.887,0.1985
790.206,0.1915
790.525,0.1933
790.845,0.1948
791.164,0.1908
791.483,0.1865
791.802,0.1981
792.121,0.1968
792.44,0.1865
792.76,0.2061
793.078,0.1966
793.397,0.2122
793.716,0.1957
794.035,0.2058
794.354,0.2007
794.672,0.1957
794.991,0.1947
795.31,0.1926
795.628,0.1853
795.947,0.1925
796.265,0.1887
796.584,0.1814
796.902,0.1839
797.22,0.1664
797.538,0.1935
797.857,0.1906
798.175,0.1898
798.493,0.2028
798.811,0.2009
799.129,0.2012
799.447,0.2022
799.765,0.2159
800.083,0.2059
800.4,0.2051
800.718,0.2048
801.036,0.2061
801.353,0.2121
801.671,0.2059
801.988,0.1957
802.306,0.194
802.623,0.1871
802.941,0.1972
803.258,0.1853
803.575,0.1953
803.892,0.1832
804.21,0.1759
804.527,0.1603
804.844,0.1644
805.161,0.1545
805.478,0.1666
805.795,0.1689
806.111,0.1864
806.428,0.1876
806.745,0.2004
807.062,0.2021
807.378,0.1846
807.695,0.1993
808.011,0.2071
808.328,0.2063
808.644,0.1952
808.961,0.1889
809.277,0.2033
809.593,0.2038
809.91,0.1913
810.226,0.2134
810.542,0.1956
810.858,0.1837
811.174,0.189
811.49,0.1875
811.806,0.1995
812.122,0.1877
812.438,0.198
812.753,0.185
813.069,0.1829
813.385,0.1809
813.7,0.1808
814.016,0.1569
814.331,0.1645
814.647,0.1718
814.962,0.1768
815.278,0.1836
815.593,0.1858
815.908,0.1947
816.223,0.1821
816.538,0.1843
816.854,0.1815
817.169,0.1809
817.484,0.2091
817.799,0.2057
818.113,0.193
818.428,0.2111
818.743,0.2076
819.058,0.2065
819.372,0.1658
819.687,0.1685
820.002,0.1747
820.316,0.1739
820.631,0.1867
820.945,0.183
821.259,0.1801
821.574,0.1794
821.888,0.1762
822.202,0.1688
822.516,0.1826
822.83,0.1806
823.145,0.1723
823.459,0.1882
823.772,0.2012
824.086,0.1963
824.4,0.1869
824.714,0.1698
825.028,0.1639
825.341,0.1704
825.655,0.1886
825.969,0.1736
826.282,0.2067
826.596,0.1986
826.909,0.1803
827.222,0.1823
827.536,0.1735
827.849,0.1741
828.162,0.1755
828.475,0.1761
828.789,0.184
829.102,0.1969
829.415,0.1975
829.728,0.2116
830.041,0.1894
830.353,0.1668
830.666,0.1724
830.979,0.186
831.292,0.1956
831.604,0.1858
831.917,0.1927
832.229,0.188
832.542,0.1845
832.854,0.1811
833.167,0.18
833.479,0.1933
833.791,0.1988
834.104,0.167
834.416,0.1944
834.728,0.1718
835.04,0.198
835.352,0.1924
835.664,0.1811
835.976,0.1846
836.288,0.1812
836.599,0.1813
836.911,0.1787
837.223,0.1992
837.535,0.1919
837.846,0.1843
838.158,0.1844
838.469,0.2031
838.781,0.1851
839.092,0.1779
839.403,0.1928
839.715,0.1845
840.026,0.1952
840.337,0.1853
840.648,0.1884
840.959,0.1819
841.27,0.1685
841.581,0.1757
841.892,0.1776
842.203,0.1735
842.514,0.1723
842.825,0.1836
843.135,0.1884
843.446,0.1875
843.757,0.1878
844.067,0.1825
844.378,0.1892
844.688,0.1805
844.999,0.1958
845.309,0.2011
845.619,0.195
845.929,0.1899
846.24,0.1988
846.55,0.1922
846.86,0.1947
847.17,0.1933
847.48,0.2033
847.79,0.1901
848.1,0.1806
848.409,0.1517
848.719,0.1744
849.029,0.1687
849.338,0.162
849.648,0.1568
849.958,0.1632
850.267,0.1875
850.577,0.1632
850.886,0.1893
851.195,0.1824
851.505,0.1708
851.814,0.1816
852.123,0.18
852.432,0.1819
852.741,0.1646
853.05,0.1995
853.359,0.2016
853.668,0.1998
853.977,0.1956
854.286,0.1982
854.595,0.1731
854.903,0.1806
855.212,0.168
855.521,0.1734
855.829,0.2088
856.138,0.2014
856.446,0.1846
856.754,0.1918
857.063,0.1853
857.371,0.1843
857.679,0.1783
857.987,0.1893
858.296,0.1967
858.604,0.1758
858.912,0.1837
859.22,0.1689
859.527,0.1762
859.835,0.1885
860.143,0.1958
860.451,0.1769
860.759,0.1685
861.066,0.171
861.374,0.1588
861.681,0.2087
861.989,0.1879
862.296,0.1867
862.604,0.1931
862.911,0.1861
863.218,0.1615
863.526,0.1753
863.833,0.1803
864.14,0.1725
864.447,0.2106
864.754,0.1945
865.061,0.1751
865.368,0.1888
865.675,0.1804
865.981,0.1631
866.288,0.1777
866.595,0.1793
866.901,0.1892
867.208,0.1882
867.515,0.1679
867.821,0.1676
868.127,0.2032
868.434,0.1917
868.74,0.1776
869.046,0.1773
869.353,0.1745
869.659,0.1608
869.965,0.1788
870.271,0.1855
870.577,0.1644
870.883,0.1844
871.189,0.1974
871.495,0.2157
871.8,0.2119
872.106,0.1665
872.412,0.1919
872.717,0.1618
873.023,0.1651
873.329,0.1696
873.634,0.2001
873.939,0.2177
874.245,0.1998
874.55,0.1917
874.855,0.1658
875.161,0.161
875.466,0.1701
875.771,0.1817
876.076,0.1726
876.381,0.1826
876.686,0.1841
876.991,0.1541
877.295,0.193
877.6,0.1836
877.905,0.1741
878.21,0.171
878.514,0.1839
878.819,0.2007
879.123,0.1743
879.428,0.2004
879.732,0.1716
880.036,0.1827
880.341,0.189
880.645,0.2249
880.949,0.192
881.253,0.18
881.557,0.189
881.861,0.2062
882.165,0.182
882.469,0.2134
882.773,0.1707
883.077,0.1941
883.381,0.2011
883.684,0.2065
883.988,0.1814
884.292,0.2066
884.595,0.1546
884.899,0.1773
885.202,0.1937
885.505,0.202
885.809,0.1849
886.112,0.1581
886.415,0.1653
886.718,0.1628
887.022,0.1881
887.325,0.178
887.628,0.2035
887.931,0.1703
888.233,0.1707
888.536,0.2245
888.839,0.1807
889.142,0.1424
889.444,0.1887
889.747,0.1898
890.05,0.1639
890.352,0.1938
890.655,0.1936
890.957,0.1955
891.259,0.1639
891.562,0.2114
891.864,0.1618
892.166,0.1896
892.468,0.2029
892.77,0.1963
893.072,0.1927
893.374,0.1783
893.676,0.1703
893.978,0.1786
894.28,0.1802
894.582,0.1944
894.883,0.1777
895.185,0.1847
895.487,0.1692
895.788,0.1898
896.09,0.1761
896.391,0.1929
896.693,0.1841
896.994,0.1677
897.295,0.173
897.596,0.1705
897.898,0.1782
898.199,0.2052
898.5,0.1722
898.801,0.1993
899.102,0.1683
899.403,0.2092
899.703,0.1778
900.004,0.1788
900.305,0.1783
900.606,0.225
900.906,0.1939
901.207,0.1688
901.507,0.1776
901.808,0.2009
902.108,0.1773
902.409,0.164
902.709,0.1891
903.009,0.1594
903.309,0.1574
903.61,0.165
903.91,0.1517
904.21,0.1447
904.51,0.1622
904.81,0.176
905.109,0.1682
905.409,0.1801
905.709,0.2054
906.009,0.2035
906.308,0.1686
906.608,0.1947
906.907,0.1892
907.207,0.1707
907.506,0.1824
907.806,0.1923
908.105,0.1796
908.404,0.1936
908.704,0.2157
909.003,0.1984
909.302,0.2293
909.601,0.1813
909.9,0.1605
910.199,0.1699
910.498,0.163
910.797,0.1677
911.095,0.207
911.394,0.2239
911.693,0.1944
911.991,0.1843
912.29,0.1828
912.589,0.1539
912.887,0.1983
913.185,0.1803
913.484,0.1382
913.782,0.1624
914.08,0.1897
914.378,0.1762
914.677,0.1709
914.975,0.1948
915.273,0.1948
915.571,0.1846
915.869,0.1898
916.166,0.1806
916.464,0.1991
916.762,0.1792
917.06,0.1953
917.357,0.2196
917.655,0.1826
917.952,0.1526
918.25,0.1907
918.547,0.1674
918.845,0.1706
919.142,0.2039
919.439,0.1853
919.736,0.1937
920.034,0.1652
920.331,0.1897
920.628,0.1939
920.925,0.1859
921.222,0.1563
921.518,0.1518
921.815,0.1359
922.112,0.1628
922.409,0.1691
922.705,0.171
923.002,0.1542
923.299,0.1709
923.595,0.1286
923.891,0.1691
924.188,0.1513
924.484,0.1845
924.78,0.2159
925.077,0.1511
925.373,0.1835
925.669,0.1664
925.965,0.1911
926.261,0.26
926.557,0.1725
926.853,0.2191
927.149,0.1599
927.444,0.1738
927.74,0.1802
928.036,0.168
928.331,0.1969
928.627,0.1768
928.923,0.1917
929.218,0.1811
929.513,0.1768
929.809,0.1922
930.104,0.1794
930.399,0.1812
930.694,0.1059
930.99,0.1038
931.285,0.131
931.58,0.1422
931.875,0.1811
932.169,0.1496
932.464,0.1706
932.759,0.1652
933.054,0.1887
933.348,0.191
933.643,0.1909
933.938,0.1891
934.232,0.167
934.527,0.1436
934.821,0.1762
935.115,0.1595
935.41,0.2018
935.704,0.2283
935.998,0.1999
936.292,0.2029
936.586,0.1485
936.88,0.1856
937.174,0.2115
937.468,0.1997
937.762,0.2594
938.056,0.1369
938.35,0.1287
938.643,0.2198
938.937,0.2644
939.23,0.1913
939.524,0.1983
939.817,0.148
940.111,0.2688
940.404,0.1167
940.698,0.0992
940.991,0.2472
941.284,0.2208
941.577,0.1041
941.87,0.0408
942.163,0.0663
942.456,0.2002
942.749,0.1373
943.042,0.2104
943.335,0.2445
943.628,0.3735
943.92,0.1824
944.213,0.0741
944.505,0.2032
944.798,0.0693
945.09,0.1212
945.383,0.1409
945.675,0.2502
945.967,0.1065
946.26,0.1806
946.552,0.1333
946.844,0.1647
947.136,0.0482
947.428,0.0536
947.72,0.2117
948.012,0.2428
948.304,0.0903
948.596,0.0762
948.887,0.1683
949.179,-0.0018
949.471,0.1622
949.762,0.0522
950.054,0.1401
950.345,0.1445
950.637,0.3168
950.928,0.1104
951.219,0.1555
951.511,0.1223
951.802,-0.084
952.093,0.26
952.384,0.1407
952.675,0.1105
952.966,0.1647
953.257,0.0159
953.548,0.2633
953.839,0.1969
954.13,0.1295
954.42,0.3169
954.711,0.1987
955.001,0.2587
955.292,0.1715
955.582,0.2916
955.873,0.1045
956.163,0.2028
956.454,0.1192
956.744,0.2071
957.034,0.0892
957.324,0.1696
957.614,0.1862
957.904,0.2277
958.194,0.2141
958.484,0.1218
958.774,0.1523
959.064,0.0469
959.353,0.198
959.643,0.3209
959.933,0.2365
960.222,0.1418
960.512,0.2178
960.801,0.1178
961.091,0.1406
961.38,0.0443
961.669,0.142
961.959,-0.0171
962.248,0.0023
962.537,0.0026
962.826,0.3164
963.115,0.092
963.404,0.0755
963.693,0.3003
963.982,0.2611
964.271,0.4681
964.559,0.2452
964.848,0.135
965.137,0.1645
965.425,0.1237
965.714,0.0802
966.002,0.2688
966.291,0.228
966.579,0.1849
966.867,0.3671
967.156,0.2612
967.444,0.1155
967.732,0.0784
968.02,0.1515
968.308,0.183
968.596,0.1907
968.884,0.1105
969.172,0.0741
969.459,0.06
969.747,0.0663
970.035,0.2209
970.322,0.2494
970.61,-0.0016
970.898,0.0281
971.185,0.1176
971.472,0.1752
971.76,0.1709
972.047,0.0193
972.334,0.0557
972.621,0.1951
972.909,0.3909
973.196,0.1919
973.483,0.2386
973.77,0.214
974.056,0.2082
974.343,0.3002
974.63,0.1654
974.917,0.1457
975.203,0.0524
975.49,0.2687
975.777,-0.0472
976.063,0.1657
976.35,0.1735
976.636,0.1667
976.922,0.1441
977.209,0.0745
977.495,0.3465
977.781,0.3117
978.067,0.0731
978.353,0.1685
978.639,0.1891
978.925,0.0668
979.211,-0.0287
979.497,0.3706
979.782,0.2444
980.068,0.2887
980.354,0.0385
980.639,0.1535
980.925,0.1296
981.21,0.4801
981.496,0.3584
981.781,0.1149
982.067,0.0632
982.352,0.0803
982.637,0.162
982.922,0.1552
983.207,0.1907
983.492,0.2708
983.777,0.112
984.062,0.182
984.347,0.0821
984.632,0.2439
984.917,-0.1149
985.201,0.1428
985.486,-0.047
985.771,0.1248
986.055,0.2646
986.34,0.0495
986.624,-0.1459
986.908,0.1465
987.193,0.1089
987.477,0.1225
987.761,-0.0795
988.045,0.157
988.329,0.1775
988.613,0.2962
988.897,0.1883
989.181,0.3469
989.465,0.0148
989.749,-0.0681
990.032,0.4795
990.316,0.2015
990.6,0.355
990.883,0.3793
991.167,0.1122
991.45,0.1248
991.734,-0.0655
992.017,0.1733
992.3,-0.0675
992.583,0.2032
992.867,0.1185
993.15,0.0716
993.433,0.4125
993.716,0.3597
993.999,0.2284
994.282,0.1175
994.564,0.0899
994.847,0.2036
995.13,1.6024
995.413,0.7225
995.695,-0.027
995.978,-0.0934
996.26,-0.1666
996.543,0.0632
996.825,0.2025
997.107,0.3516
997.389,0.2961
997.672,0.2269
997.954,-0
998.236,0.4388
998.518,0.8711
998.8,0.0308
999.082,0.4992
999.364,-0.7829
999.645,0.0323
999.927,1.416
1000.209,0.0545
1000.491,0.0469
1000.772,0.22
1001.054,0.4753
1001.335,0.1951
1001.616,1.4183
1001.898,-0.0325
1002.179,0.0626
1002.46,0.3058
1002.742,0.1394
1003.023,0.1128
1003.304,0.0324
1003.585,0.0884
1003.866,0.078
1004.147,-0
1004.427,-0
1004.708,0.0435
1004.989,-0.0435
1005.269,0.2389
1005.55,-0.0118
1005.831,-0
1006.111,-0
1006.392,0.1689
1006.672,-0.0347
1006.952,0.0738
1007.232,0.0674
1007.513,-0
1007.793,-0
1008.073,0.0554
1008.353,0.0688
1008.633,0.0807
1008.913,0.1782
1009.193,-0.0297
1009.472,0.1422
1009.752,-0
1010.032,0.053
1010.312,-0
1010.591,-0.2116
1010.871,0.0593
1011.15,0.2579
1011.429,-0.1414
1011.709,-0.0219
1011.988,-0
1012.267,0.1771
1012.547,-0
1012.826,-0
1013.105,-0.0087
1013.384,-0.791
1013.663,-0.3386
1013.941,0.0107
1014.22,-0
1014.499,0.0429
1014.778,-0.0802
1015.056,0.1828
1015.335,-0.0805
1015.614,-0.0328
1015.892,0.0274
1016.17,-0.4425
1016.449,0.7623
1016.727,0.0273
1017.005,-0.0665
1017.284,-0.0665
1017.562,-0.0665
