Data from G6_T4_Absorbance_15-49-35-487.txt Node
Date: Mon Sep 09 15:49:35 IST 2024
User: Optics Lab
Spectrometer: FLMS06900
Trigger mode: 0
Integration Time (sec): 6.000000E-3
Scans to average: 1
Electric dark correction enabled: true
Nonlinearity correction enabled: false
Boxcar width: 0
XAxis mode: Wavelengths
Number of Pixels in Spectrum: 2048
>>>>>Begin Spectral Data<<<<<
339.78	0.3043
340.159	0.3043
340.537	0.3043
340.915	-0
341.293	0.5738
341.671	0.0041
342.049	0.1088
342.427	-0.1823
342.805	-0.1386
343.183	-0.4822
343.561	1.3308
343.939	-0.3904
344.317	-0
344.694	-0.9882
345.072	-0.2495
345.45	-0
345.827	-0.3155
346.205	-0.2963
346.583	0.2864
346.96	-1.5243
347.338	-0.1271
347.715	0.0646
348.092	-0
348.47	0.1941
348.847	-0
349.224	-0.2371
349.601	0.237
349.979	-0.3739
350.356	0.1147
350.733	-0.6194
351.11	-0
351.487	0.0569
351.864	-0
352.241	-0
352.618	-0.4795
352.995	-0.5029
353.372	0.0787
353.748	-0
354.125	-0.0141
354.502	-0.128
354.878	0.0734
355.255	0.2892
355.632	0.141
356.008	-0.2054
356.385	-0
356.761	-0.309
357.137	0.0905
357.514	0.8208
357.89	-0
358.266	0.2101
358.643	0.0994
359.019	-0
359.395	-0
359.771	-0.0772
360.147	-0.296
360.523	-0.0918
360.899	-0.2185
361.275	-0.7809
361.651	0.0678
362.027	-0.2979
362.403	-0.4953
362.779	-0.5574
363.155	-0.0841
363.53	0.2128
363.906	0.0827
364.282	-0
364.657	-0.1175
365.033	0.7064
365.408	0.0652
365.784	-0.0862
366.159	0.0382
366.535	0.0611
366.91	0.0707
367.285	-0.0413
367.66	-0.0144
368.036	-0.699
368.411	0.1115
368.786	-0.1982
369.161	0.3072
369.536	-0.0335
369.911	-0.3662
370.286	-0.6152
370.661	-0.3285
371.036	0.2745
371.411	-0.3962
371.786	0.1648
372.16	0.5315
372.535	-0
372.91	-0.1627
373.285	0.4888
373.659	-0.0235
374.034	-0.1715
374.408	-0.1215
374.783	0.1374
375.157	-0.0681
375.532	-0.0433
375.906	-2.168
376.28	-0.07
376.655	-0.1922
377.029	0.18
377.403	0.2131
377.777	0.0406
378.151	-0.1447
378.525	-0.0924
378.899	0.0732
379.273	-0.124
379.647	0.0423
380.021	-0.2421
380.395	-0.1012
380.769	-0.2243
381.143	0.1159
381.517	-0.0168
381.89	0.0161
382.264	0.0536
382.638	-0.2685
383.011	-0.1783
383.385	0.1395
383.758	0.0199
384.132	-0.134
384.505	-0.1669
384.878	-0.0016
385.252	-0.0637
385.625	-0.1161
385.998	0.0361
386.372	-0.1053
386.745	-0.1276
387.118	-0.1631
387.491	-0.0055
387.864	-0.0687
388.237	-0.0597
388.61	-0.0596
388.983	-0.0076
389.356	0.0363
389.729	0.037
390.101	-0.1045
390.474	-0.0267
390.847	-0.0714
391.219	0.0094
391.592	-0.1122
391.965	-0.072
392.337	-0.0997
392.71	-0.1291
393.082	-0.0666
393.455	-0.0787
393.827	0.0189
394.199	-0.0027
394.572	-0.0916
394.944	-0.0059
395.316	-0.037
395.688	0.0783
396.06	-0.1154
396.433	-0.1648
396.805	-0.2344
397.177	-0.016
397.549	-0.0025
397.92	-0.0049
398.292	-0.0658
398.664	-0.1087
399.036	0.0657
399.408	-0.0292
399.779	-0.0331
400.151	0.0177
400.523	0.033
400.894	0.0442
401.266	-0.0886
401.637	-0.0185
402.009	-0.0171
402.38	0.0076
402.752	0.0091
403.123	0.0991
403.494	0.0156
403.866	0.0334
404.237	-0.0328
404.608	-0.0159
404.979	-0.1324
405.35	0.0234
405.721	-0.0132
406.092	0.0072
406.463	-0.0632
406.834	0.0151
407.205	0.0316
407.576	-0.045
407.947	-0.0126
408.317	-0.0801
408.688	-0.0198
409.059	-0.0506
409.429	-0.0115
409.8	-0.0682
410.171	-0.0065
410.541	-0.0394
410.912	0.0218
411.282	0.0041
411.652	-0.0003
412.023	-0.059
412.393	-0.0683
412.763	-0.0388
413.133	-0.0451
413.504	-0.0243
413.874	-0.0451
414.244	-0.0348
414.614	-0.0262
414.984	-0.0165
415.354	0.0091
415.724	0.0383
416.094	-0.0002
416.463	-0.0412
416.833	-0.0281
417.203	-0.0336
417.573	0.0049
417.942	-0.0191
418.312	-0.0069
418.682	-0.0339
419.051	-0.0738
419.421	0.0168
419.79	0.0069
420.159	-0.0463
420.529	-0.0133
420.898	0.0148
421.267	-0.0166
421.637	0.0031
422.006	-0.0413
422.375	0.012
422.744	-0.0447
423.113	-0.0372
423.482	-0.0142
423.851	-0.0324
424.22	-0.0401
424.589	-0.03
424.958	-0.0595
425.327	0.0215
425.695	-0.0089
426.064	-0.0212
426.433	-0.0114
426.802	-0.0047
427.17	-0.0341
427.539	-0.0158
427.907	-0.0188
428.276	-0.0439
428.644	-0.0095
429.013	-0.0265
429.381	-0.0295
429.749	-0.0547
430.118	-0.0319
430.486	-0.006
430.854	-0.0327
431.222	-0.0099
431.59	-0.0347
431.958	-0.0246
432.326	0.0043
432.694	0.001
433.062	-0.0165
433.43	-0.0307
433.798	0.0019
434.166	-0.0025
434.533	-0.0152
434.901	-0.0393
435.269	-0.0435
435.636	-0.0526
436.004	-0.003
436.372	-0.04
436.739	-0.0069
437.107	0.0183
437.474	-0.0185
437.841	-0.0271
438.209	-0.0037
438.576	0.0092
438.943	-0.0462
439.31	-0.0106
439.678	-0.0177
440.045	-0.0109
440.412	-0.0332
440.779	-0.0236
441.146	-0.0116
441.513	-0.0111
441.88	-0.009
442.247	-0.0141
442.613	-0.0103
442.98	-0.0117
443.347	-0.0494
443.714	-0.0124
444.08	0.0157
444.447	-0.008
444.813	-0.017
445.18	0.0063
445.546	-0.0248
445.913	-0.0455
446.279	-0.0343
446.646	-0.0473
447.012	-0.0108
447.378	0.0015
447.744	0.0076
448.111	-0.0157
448.477	-0.0362
448.843	0.0014
449.209	0.0139
449.575	-0.0009
449.941	-0.021
450.307	-0.0015
450.673	-0.0138
451.039	-0.0346
451.404	-0.0125
451.77	-0.0134
452.136	-0.006
452.502	0.006
452.867	-0.0341
453.233	-0.022
453.598	-0.015
453.964	-0.0215
454.329	0.0178
454.695	-0.0221
455.06	-0.0012
455.425	0.0018
455.791	-0.0155
456.156	0.0002
456.521	0.0089
456.886	-0.0126
457.251	-0.0223
457.616	-0.0218
457.981	-0.0006
458.346	-0.0226
458.711	-0.0021
459.076	-0.0171
459.441	-0.0003
459.806	0.0022
460.171	-0.0182
460.535	0.0083
460.9	-0.0158
461.265	-0.0148
461.629	0.0025
461.994	-0.0265
462.358	-0.0251
462.723	-0.0038
463.087	0.0089
463.452	-0.0149
463.816	-0.0028
464.18	-0.0156
464.544	0.0069
464.909	-0.0095
465.273	-0.0203
465.637	-0.0043
466.001	0.0023
466.365	-0.0242
466.729	0.0075
467.093	-0.0076
467.457	-0.0037
467.821	0.0069
468.185	-0.0045
468.548	0.0041
468.912	0.003
469.276	-0.0096
469.639	0.0119
470.003	-0.0285
470.367	-0.0132
470.73	-0.0215
471.094	-0.0111
471.457	0.0047
471.82	0.0073
472.184	-0.0009
472.547	0.0012
472.91	0.0065
473.274	-0.0062
473.637	-0.0095
474	-0.0004
474.363	0.0097
474.726	0.0038
475.089	0.0047
475.452	0.0022
475.815	0.0137
476.178	0.0257
476.54	-0.0184
476.903	0.0131
477.266	0.0057
477.629	-0.0018
477.991	-0.0146
478.354	0.004
478.716	-0.019
479.079	0.016
479.441	0.0034
479.804	0.0101
480.166	0.0037
480.529	0.0097
480.891	-0.0049
481.253	-0.018
481.615	-0.0021
481.978	0.0117
482.34	-0
482.702	-0.005
483.064	-0.0098
483.426	-0.0026
483.788	0.0093
484.15	-0.0003
484.512	0.0063
484.873	-0.0036
485.235	0.0008
485.597	0.0043
485.959	-0.0031
486.32	-0
486.682	0.0032
487.043	-0.0039
487.405	-0.0085
487.766	0.0065
488.128	-0.0022
488.489	-0.0051
488.85	0.0042
489.212	0.0144
489.573	0.0068
489.934	0.0014
490.295	0.0045
490.657	0.0047
491.018	-0.0046
491.379	0.0057
491.74	-0.0054
492.101	0.0117
492.461	0.0136
492.822	0.0053
493.183	0.0151
493.544	0.0092
493.905	-0.0077
494.265	0.001
494.626	-0.001
494.987	0.0154
495.347	0.0058
495.708	-0.0038
496.068	0.0012
496.429	0.0092
496.789	0.002
497.149	0.012
497.509	0.0098
497.87	-0.0003
498.23	-0
498.59	-0.0031
498.95	0.0118
499.31	0.014
499.67	0.0173
500.03	0.0121
500.39	0.0045
500.75	0.006
501.11	0.0017
501.47	0.005
501.83	0.0107
502.189	0.0054
502.549	-0.0042
502.909	-0.0016
503.268	0.0012
503.628	-0.005
503.987	0.0053
504.347	0.0072
504.706	0.0076
505.065	0.0163
505.425	0.0173
505.784	0.0179
506.143	0.0116
506.502	0.0143
506.862	0.0214
507.221	0.0078
507.58	0.0079
507.939	-0.005
508.298	0.0013
508.657	0.0069
509.015	0.0081
509.374	0.0082
509.733	0.003
510.092	0.0057
510.451	0.0015
510.809	0.0138
511.168	0.0097
511.526	0.0011
511.885	0.0004
512.243	0.0084
512.602	0.0105
512.96	0.0231
513.319	0.0085
513.677	0.0063
514.035	-0.0023
514.393	0.0106
514.751	0.0094
515.11	0.0095
515.468	0.009
515.826	0.0148
516.184	0.0162
516.542	0.0183
516.9	0.0189
517.257	0.0145
517.615	0.022
517.973	0.0013
518.331	0.0102
518.688	0.0109
519.046	0.0084
519.404	0.0152
519.761	0.0024
520.119	0.0059
520.476	0.0089
520.834	0.0231
521.191	0.0164
521.548	0.0133
521.906	0.0089
522.263	0.0052
522.62	0.0054
522.977	0.0182
523.334	0.0001
523.691	0.0098
524.048	0.015
524.405	0.0095
524.762	0.0135
525.119	0.0182
525.476	0.014
525.833	0.0105
526.189	0.0184
526.546	0.0143
526.903	0.0151
527.259	0.0137
527.616	0.0074
527.973	0.018
528.329	0.0153
528.685	0.0113
529.042	0.017
529.398	0.0135
529.755	0.0125
530.111	0.0122
530.467	0.0108
530.823	0.0143
531.179	0.0097
531.535	0.0136
531.891	0.0136
532.247	0.011
532.603	0.017
532.959	0.0232
533.315	0.0143
533.671	0.0189
534.027	0.0266
534.382	0.028
534.738	0.0205
535.094	0.0167
535.449	0.0143
535.805	0.0274
536.16	0.006
536.516	0.0187
536.871	0.0062
537.226	0.0113
537.582	0.0067
537.937	0.018
538.292	0.0144
538.647	0.0251
539.003	0.0177
539.358	0.0221
539.713	0.0214
540.068	0.0212
540.423	0.0246
540.778	0.0278
541.132	0.0202
541.487	0.0151
541.842	0.0129
542.197	0.0093
542.552	0.0189
542.906	0.014
543.261	0.0084
543.615	0.0227
543.97	0.031
544.324	0.0288
544.679	0.0301
545.033	0.0278
545.387	0.0346
545.742	0.0342
546.096	0.0328
546.45	0.0328
546.804	0.0289
547.158	0.0281
547.512	0.0154
547.866	0.0197
548.22	0.0169
548.574	0.0268
548.928	0.0213
549.282	0.0158
549.636	0.0283
549.99	0.0217
550.343	0.0351
550.697	0.0379
551.05	0.0344
551.404	0.0345
551.758	0.0231
552.111	0.0231
552.464	0.0349
552.818	0.023
553.171	0.0351
553.524	0.0243
553.878	0.0314
554.231	0.0174
554.584	0.0347
554.937	0.0298
555.29	0.032
555.643	0.0305
555.996	0.0394
556.349	0.0328
556.702	0.0261
557.055	0.0373
557.408	0.0312
557.76	0.0368
558.113	0.04
558.466	0.0346
558.818	0.0394
559.171	0.0352
559.523	0.0318
559.876	0.0382
560.228	0.0382
560.581	0.0378
560.933	0.0368
561.285	0.0376
561.638	0.0347
561.99	0.042
562.342	0.035
562.694	0.0382
563.046	0.0478
563.398	0.0538
563.75	0.0542
564.102	0.0464
564.454	0.0458
564.806	0.0491
565.158	0.0498
565.509	0.05
565.861	0.0554
566.213	0.0418
566.564	0.0461
566.916	0.048
567.267	0.0496
567.619	0.0507
567.97	0.0552
568.322	0.0443
568.673	0.0475
569.024	0.0484
569.376	0.0522
569.727	0.0489
570.078	0.0481
570.429	0.0438
570.78	0.0566
571.131	0.0557
571.482	0.0476
571.833	0.0491
572.184	0.0491
572.535	0.0544
572.885	0.0516
573.236	0.0554
573.587	0.0614
573.938	0.0579
574.288	0.0612
574.639	0.0545
574.989	0.0512
575.34	0.0675
575.69	0.069
576.04	0.056
576.391	0.0522
576.741	0.0629
577.091	0.0676
577.442	0.0584
577.792	0.0551
578.142	0.0574
578.492	0.0575
578.842	0.0649
579.192	0.069
579.542	0.065
579.892	0.06
580.241	0.0728
580.591	0.0662
580.941	0.063
581.291	0.0794
581.64	0.0801
581.99	0.0701
582.339	0.0638
582.689	0.0771
583.038	0.0789
583.388	0.0784
583.737	0.0789
584.086	0.0684
584.436	0.0696
584.785	0.076
585.134	0.0786
585.483	0.0714
585.832	0.0656
586.181	0.0744
586.53	0.0827
586.879	0.0823
587.228	0.0776
587.577	0.08
587.926	0.0808
588.275	0.08
588.623	0.0818
588.972	0.0894
589.321	0.0922
589.669	0.096
590.018	0.0953
590.366	0.0889
590.715	0.0866
591.063	0.0976
591.412	0.0879
591.76	0.096
592.108	0.0988
592.456	0.103
592.805	0.1
593.153	0.1016
593.501	0.1008
593.849	0.0913
594.197	0.0924
594.545	0.1024
594.893	0.1025
595.24	0.0998
595.588	0.1072
595.936	0.1058
596.284	0.1084
596.631	0.1031
596.979	0.121
597.327	0.1232
597.674	0.1195
598.022	0.1152
598.369	0.1166
598.716	0.1104
599.064	0.1155
599.411	0.1157
599.758	0.1233
600.105	0.1177
600.453	0.123
600.8	0.1245
601.147	0.1293
601.494	0.1245
601.841	0.1263
602.188	0.1213
602.535	0.1266
602.881	0.1308
603.228	0.1399
603.575	0.129
603.922	0.1343
604.268	0.1372
604.615	0.1352
604.961	0.1343
605.308	0.1311
605.654	0.1421
606.001	0.1392
606.347	0.1425
606.693	0.1376
607.04	0.1354
607.386	0.142
607.732	0.144
608.078	0.1475
608.424	0.14
608.77	0.1492
609.116	0.1529
609.462	0.1497
609.808	0.1535
610.154	0.1524
610.5	0.1497
610.846	0.1524
611.191	0.1529
611.537	0.1517
611.883	0.16
612.228	0.1589
612.574	0.1526
612.919	0.1504
613.265	0.1524
613.61	0.1511
613.955	0.16
614.301	0.1647
614.646	0.1563
614.991	0.1584
615.336	0.1597
615.681	0.1591
616.026	0.1569
616.371	0.1632
616.716	0.1695
617.061	0.1637
617.406	0.1557
617.751	0.1624
618.096	0.1692
618.44	0.1667
618.785	0.1606
619.13	0.1565
619.474	0.1662
619.819	0.1613
620.163	0.1673
620.508	0.1583
620.852	0.1685
621.197	0.1684
621.541	0.1619
621.885	0.17
622.229	0.1743
622.574	0.1713
622.918	0.1732
623.262	0.1701
623.606	0.1743
623.95	0.1725
624.294	0.1715
624.638	0.1649
624.981	0.1691
625.325	0.1758
625.669	0.1694
626.013	0.1682
626.356	0.1589
626.7	0.1794
627.043	0.17
627.387	0.1755
627.73	0.1741
628.074	0.1651
628.417	0.1691
628.761	0.1779
629.104	0.1665
629.447	0.1686
629.79	0.1625
630.133	0.1721
630.476	0.1749
630.819	0.1801
631.162	0.1807
631.505	0.1845
631.848	0.1721
632.191	0.1701
632.534	0.1839
632.877	0.1821
633.219	0.1835
633.562	0.1794
633.905	0.1867
634.247	0.1807
634.59	0.1781
634.932	0.1812
635.275	0.1846
635.617	0.1789
635.959	0.18
636.302	0.1802
636.644	0.1878
636.986	0.1889
637.328	0.1993
637.67	0.1979
638.012	0.2
638.354	0.2112
638.696	0.2041
639.038	0.1982
639.38	0.2055
639.722	0.1966
640.064	0.2064
640.405	0.2118
640.747	0.2115
641.089	0.2075
641.43	0.1947
641.772	0.2103
642.113	0.2173
642.455	0.212
642.796	0.2141
643.137	0.2078
643.479	0.2106
643.82	0.22
644.161	0.2141
644.502	0.2207
644.843	0.2287
645.185	0.2254
645.526	0.2333
645.866	0.2351
646.207	0.2315
646.548	0.233
646.889	0.2498
647.23	0.237
647.571	0.2492
647.911	0.242
648.252	0.2376
648.592	0.2463
648.933	0.2489
649.273	0.2403
649.614	0.2514
649.954	0.248
650.295	0.2506
650.635	0.2685
650.975	0.2592
651.315	0.2624
651.656	0.2711
651.996	0.2635
652.336	0.2654
652.676	0.2745
653.016	0.2606
653.356	0.2675
653.695	0.2732
654.035	0.2689
654.375	0.2638
654.715	0.2733
655.054	0.2808
655.394	0.2829
655.734	0.2872
656.073	0.2807
656.413	0.2923
656.752	0.3004
657.091	0.2807
657.431	0.2992
657.77	0.2833
658.109	0.2917
658.449	0.2909
658.788	0.2904
659.127	0.2935
659.466	0.2977
659.805	0.3021
660.144	0.3015
660.483	0.303
660.822	0.3137
661.16	0.3018
661.499	0.3057
661.838	0.3094
662.177	0.3107
662.515	0.3153
662.854	0.3132
663.192	0.3001
663.531	0.294
663.869	0.3023
664.208	0.3042
664.546	0.3076
664.884	0.301
665.222	0.3168
665.561	0.3104
665.899	0.3052
666.237	0.3193
666.575	0.3201
666.913	0.322
667.251	0.3185
667.589	0.3247
667.927	0.3165
668.264	0.3101
668.602	0.3045
668.94	0.2907
669.278	0.3064
669.615	0.2943
669.953	0.2965
670.29	0.2924
670.628	0.2879
670.965	0.2834
671.303	0.2798
671.64	0.2799
671.977	0.2868
672.314	0.3004
672.652	0.292
672.989	0.3028
673.326	0.2836
673.663	0.2865
674	0.282
674.337	0.2893
674.674	0.2876
675.01	0.2794
675.347	0.2654
675.684	0.2581
676.021	0.2538
676.357	0.2395
676.694	0.2558
677.031	0.2271
677.367	0.2251
677.704	0.2314
678.04	0.2239
678.376	0.2148
678.713	0.2142
679.049	0.225
679.385	0.2241
679.721	0.2108
680.057	0.2169
680.393	0.2122
680.73	0.1966
681.065	0.2084
681.401	0.2066
681.737	0.2038
682.073	0.188
682.409	0.1855
682.745	0.1771
683.08	0.1756
683.416	0.1751
683.752	0.1768
684.087	0.1577
684.423	0.161
684.758	0.149
685.093	0.1465
685.429	0.1506
685.764	0.1373
686.099	0.144
686.435	0.1341
686.77	0.1308
687.105	0.1323
687.44	0.1238
687.775	0.1233
688.11	0.1234
688.445	0.1212
688.78	0.1187
689.114	0.1195
689.449	0.1152
689.784	0.1138
690.119	0.1063
690.453	0.1108
690.788	0.1075
691.122	0.1012
691.457	0.0959
691.791	0.0891
692.126	0.0817
692.46	0.0814
692.794	0.0743
693.128	0.0796
693.463	0.0789
693.797	0.0786
694.131	0.0798
694.465	0.0745
694.799	0.0793
695.133	0.0795
695.467	0.0728
695.801	0.0761
696.134	0.0738
696.468	0.065
696.802	0.0621
697.135	0.074
697.469	0.0686
697.803	0.0704
698.136	0.0679
698.47	0.0675
698.803	0.0598
699.136	0.0514
699.47	0.0606
699.803	0.054
700.136	0.039
700.469	0.0511
700.802	0.0454
701.135	0.0648
701.468	0.0493
701.801	0.0481
702.134	0.0625
702.467	0.0497
702.8	0.0422
703.133	0.0526
703.465	0.0506
703.798	0.0521
704.131	0.0425
704.463	0.038
704.796	0.045
705.128	0.049
705.461	0.0451
705.793	0.0371
706.125	0.0356
706.458	0.0387
706.79	0.0316
707.122	0.046
707.454	0.0361
707.786	0.0419
708.118	0.0432
708.45	0.0413
708.782	0.0467
709.114	0.0357
709.446	0.0366
709.778	0.0458
710.11	0.0382
710.441	0.0434
710.773	0.0376
711.104	0.0405
711.436	0.0376
711.768	0.0392
712.099	0.04
712.43	0.0343
712.762	0.0366
713.093	0.041
713.424	0.0389
713.755	0.0339
714.087	0.0347
714.418	0.0343
714.749	0.0415
715.08	0.0382
715.411	0.0354
715.742	0.0295
716.072	0.0364
716.403	0.0367
716.734	0.0292
717.065	0.0384
717.395	0.0286
717.726	0.0188
718.057	0.0178
718.387	0.0249
718.718	0.0296
719.048	0.038
719.378	0.0277
719.709	0.0343
720.039	0.0398
720.369	0.0255
720.699	0.0267
721.029	0.0323
721.359	0.0314
721.689	0.0291
722.019	0.0232
722.349	0.0325
722.679	0.0331
723.009	0.0299
723.339	0.0423
723.669	0.0402
723.998	0.0317
724.328	0.0405
724.657	0.0311
724.987	0.0247
725.316	0.0272
725.646	0.0342
725.975	0.0396
726.305	0.039
726.634	0.0292
726.963	0.0303
727.292	0.0361
727.621	0.033
727.95	0.0288
728.279	0.0339
728.608	0.0344
728.937	0.0298
729.266	0.0316
729.595	0.0415
729.924	0.0377
730.253	0.034
730.581	0.0245
730.91	0.0215
731.238	0.028
731.567	0.0256
731.896	0.0395
732.224	0.0301
732.552	0.0284
732.881	0.0263
733.209	0.0266
733.537	0.0346
733.865	0.0166
734.194	0.0256
734.522	0.0257
734.85	0.0242
735.178	0.0349
735.506	0.0111
735.833	0.0247
736.161	0.0363
736.489	0.0331
736.817	0.0351
737.144	0.0402
737.472	0.0296
737.8	0.0377
738.127	0.0306
738.455	0.0337
738.782	0.032
739.11	0.0243
739.437	0.0329
739.764	0.0289
740.091	0.0162
740.419	0.0258
740.746	0.0289
741.073	0.0311
741.4	0.039
741.727	0.0336
742.054	0.0295
742.381	0.025
742.708	0.0208
743.034	0.0343
743.361	0.0418
743.688	0.034
744.014	0.0456
744.341	0.0352
744.668	0.0246
744.994	0.0357
745.321	0.0329
745.647	0.036
745.973	0.0342
746.3	0.0367
746.626	0.0156
746.952	0.0247
747.278	0.0229
747.604	0.0178
747.93	0.0229
748.256	0.0352
748.582	0.0336
748.908	0.0264
749.234	0.0254
749.56	0.0385
749.885	0.0372
750.211	0.0393
750.537	0.0431
750.862	0.0481
751.188	0.0348
751.513	0.0442
751.839	0.0344
752.164	0.0376
752.49	0.0268
752.815	0.0282
753.14	0.0249
753.465	0.0172
753.79	0.0142
754.116	0.0306
754.441	0.0305
754.766	0.0199
755.091	0.0322
755.415	0.0283
755.74	0.0204
756.065	0.0207
756.39	0.0384
756.714	0.0377
757.039	0.0323
757.364	0.0375
757.688	0.042
758.013	0.0427
758.337	0.0343
758.662	0.0368
758.986	0.028
759.31	0.0345
759.634	0.0358
759.959	0.0304
760.283	0.034
760.607	0.0275
760.931	0.0334
761.255	0.0353
761.579	0.0268
761.903	0.0205
762.226	0.0217
762.55	0.0251
762.874	0.0356
763.198	0.014
763.521	0.0279
763.845	0.0346
764.168	0.0325
764.492	0.0436
764.815	0.0363
765.139	0.0299
765.462	0.0315
765.785	0.0407
766.109	0.0196
766.432	0.0379
766.755	0.0315
767.078	0.0329
767.401	0.0387
767.724	0.0394
768.047	0.0364
768.37	0.0397
768.693	0.0431
769.015	0.0436
769.338	0.0306
769.661	0.0393
769.983	0.0335
770.306	0.0469
770.628	0.0187
770.951	0.0295
771.273	0.0103
771.596	0.0299
771.918	0.0169
772.24	0.0327
772.562	0.0282
772.885	0.0254
773.207	0.0206
773.529	0.0353
773.851	0.025
774.173	0.0243
774.495	0.0421
774.817	0.0347
775.138	0.0381
775.46	0.0362
775.782	0.0433
776.103	0.0359
776.425	0.0317
776.747	0.0346
777.068	0.0319
777.39	0.0308
777.711	0.0423
778.032	0.0326
778.354	0.0205
778.675	0.0366
778.996	0.029
779.317	0.0288
779.638	0.0303
779.959	0.0285
780.28	0.0258
780.601	0.0361
780.922	0.0356
781.243	0.0333
781.564	0.0324
781.885	0.028
782.205	0.0278
782.526	0.018
782.847	0.0303
783.167	0.0186
783.488	0.0157
783.808	0.0177
784.128	0.018
784.449	0.0208
784.769	0.0196
785.089	0.0252
785.409	0.0203
785.73	0.0271
786.05	0.0257
786.37	0.0281
786.69	0.0289
787.01	0.0387
787.329	0.03
787.649	0.0296
787.969	0.0249
788.289	0.0248
788.608	0.0285
788.928	0.0319
789.248	0.0336
789.567	0.0291
789.887	0.0293
790.206	0.0194
790.525	0.0219
790.845	0.0411
791.164	0.0315
791.483	0.0312
791.802	0.0322
792.121	0.0373
792.44	0.0318
792.76	0.0449
793.078	0.0346
793.397	0.0455
793.716	0.0393
794.035	0.039
794.354	0.0358
794.672	0.0439
794.991	0.0408
795.31	0.0507
795.628	0.0407
795.947	0.0327
796.265	0.0303
796.584	0.0272
796.902	0.0312
797.22	0.0157
797.538	0.0256
797.857	0.021
798.175	0.0174
798.493	0.0502
798.811	0.0356
799.129	0.0423
799.447	0.0481
799.765	0.0463
800.083	0.0532
800.4	0.0463
800.718	0.0501
801.036	0.0395
801.353	0.0434
801.671	0.0388
801.988	0.0327
802.306	0.0298
802.623	0.0339
802.941	0.041
803.258	0.0336
803.575	0.0305
803.892	0.0247
804.21	0.0162
804.527	0.0217
804.844	0.0247
805.161	0.0165
805.478	0.0112
805.795	0.012
806.111	0.0204
806.428	0.0367
806.745	0.0439
807.062	0.0597
807.378	0.0328
807.695	0.0435
808.011	0.0463
808.328	0.044
808.644	0.0375
808.961	0.0376
809.277	0.0456
809.593	0.0408
809.91	0.0475
810.226	0.0463
810.542	0.0474
810.858	0.0449
811.174	0.03
811.49	0.0288
811.806	0.0351
812.122	0.0273
812.438	0.0396
812.753	0.0291
813.069	0.0154
813.385	0.0127
813.7	0.013
814.016	0.0053
814.331	0.0169
814.647	0.0219
814.962	0.0266
815.278	0.0367
815.593	0.0298
815.908	0.0252
816.223	0.0287
816.538	0.0275
816.854	0.0357
817.169	0.0332
817.484	0.0439
817.799	0.0366
818.113	0.0509
818.428	0.0499
818.743	0.0499
819.058	0.0379
819.372	0.0238
819.687	0.0212
820.002	0.0305
820.316	0.0248
820.631	0.042
820.945	0.0255
821.259	0.035
821.574	0.0301
821.888	0.0276
822.202	0.0185
822.516	0.0275
822.83	0.0173
823.145	0.011
823.459	0.0256
823.772	0.0354
824.086	0.031
824.4	0.0398
824.714	0.0264
825.028	0.0335
825.341	0.0215
825.655	0.0266
825.969	0.0224
826.282	0.039
826.596	0.0435
826.909	0.0417
827.222	0.0469
827.536	0.0283
827.849	0.0417
828.162	0.0185
828.475	0.0355
828.789	0.0284
829.102	0.0553
829.415	0.0562
829.728	0.0338
830.041	0.0355
830.353	0.0155
830.666	0.0248
830.979	0.0311
831.292	0.0441
831.604	0.0368
831.917	0.0242
832.229	0.0323
832.542	0.0294
832.854	0.0518
833.167	0.0313
833.479	0.0244
833.791	0.0309
834.104	0.0306
834.416	0.0446
834.728	0.0339
835.04	0.0501
835.352	0.0295
835.664	0.0409
835.976	0.0445
836.288	0.0399
836.599	0.0555
836.911	0.0404
837.223	0.0304
837.535	0.0333
837.846	0.0438
838.158	0.0547
838.469	0.0566
838.781	0.0513
839.092	0.0404
839.403	0.0339
839.715	0.0334
840.026	0.042
840.337	0.038
840.648	0.0253
840.959	0.0433
841.27	0.0247
841.581	0.0275
841.892	0.0425
842.203	0.0241
842.514	0.0181
842.825	0.0478
843.135	0.0443
843.446	0.0384
843.757	0.0411
844.067	0.0363
844.378	0.0371
844.688	0.0303
844.999	0.0458
845.309	0.0388
845.619	0.0222
845.929	0.0568
846.24	0.0429
846.55	0.0441
846.86	0.0386
847.17	0.0258
847.48	0.0364
847.79	0.0253
848.1	0.0429
848.409	0.0453
848.719	0.03
849.029	0.0216
849.338	0.0192
849.648	0.0331
849.958	0.0186
850.267	0.0281
850.577	0.0275
850.886	0.044
851.195	0.0416
851.505	0.0415
851.814	0.0442
852.123	0.0209
852.432	0.0254
852.741	0.0249
853.05	0.0459
853.359	0.0438
853.668	0.056
853.977	0.0478
854.286	0.0373
854.595	0.0315
854.903	0.0476
855.212	0.0476
855.521	0.021
855.829	0.043
856.138	0.0437
856.446	0.0552
856.754	0.037
857.063	0.0601
857.371	0.0489
857.679	0.0482
857.987	0.0527
858.296	0.0424
858.604	0.0462
858.912	0.0344
859.22	0.0406
859.527	0.03
859.835	0.0414
860.143	0.0525
860.451	0.0582
860.759	0.0384
861.066	0.0331
861.374	0.0289
861.681	0.0535
861.989	0.0528
862.296	0.0473
862.604	0.0683
862.911	0.0546
863.218	0.051
863.526	0.0423
863.833	0.0289
864.14	0.0235
864.447	0.0587
864.754	0.044
865.061	0.0568
865.368	0.0514
865.675	0.0403
865.981	0.026
866.288	0.0414
866.595	0.0378
866.901	0.0217
867.208	0.0444
867.515	0.0448
867.821	0.0353
868.127	0.0395
868.434	0.0427
868.74	0.0189
869.046	0.0325
869.353	0.037
869.659	0.0227
869.965	0.0282
870.271	0.0317
870.577	0.0391
870.883	0.0232
871.189	0.0427
871.495	0.0447
871.8	0.0728
872.106	0.0404
872.412	0.0362
872.717	0.0364
873.023	0.0455
873.329	0.0417
873.634	0.0421
873.939	0.0544
874.245	0.0726
874.55	0.0408
874.855	0.0411
875.161	0.0315
875.466	0.0376
875.771	0.0386
876.076	0.0347
876.381	0.0423
876.686	0.0309
876.991	0.0438
877.295	0.0522
877.6	0.0564
877.905	0.0454
878.21	0.048
878.514	0.027
878.819	0.0293
879.123	0.026
879.428	0.0716
879.732	0.0382
880.036	0.0433
880.341	0.0555
880.645	0.0536
880.949	0.0358
881.253	0.0491
881.557	0.0324
881.861	0.0607
882.165	0.0207
882.469	0.0467
882.773	0.021
883.077	0.0494
883.381	0.0232
883.684	0.0482
883.988	0.032
884.292	0.0554
884.595	0.0298
884.899	0.0388
885.202	0.0726
885.505	0.0512
885.809	0.0487
886.112	0.0323
886.415	0.0281
886.718	0.0526
887.022	0.0161
887.325	0.0364
887.628	0.0423
887.931	0.026
888.233	0.013
888.536	0.0675
888.839	0.0108
889.142	-0.0164
889.444	0.0416
889.747	0.028
890.05	0.0283
890.352	0.0491
890.655	0.0423
890.957	0.0229
891.259	0.0095
891.562	0.0509
891.864	0.0271
892.166	0.0364
892.468	0.0459
892.77	0.0258
893.072	0.0209
893.374	0.0268
893.676	0.0261
893.978	0.0281
894.28	0.0256
894.582	0.0308
894.883	0.0526
895.185	0.0354
895.487	0.0362
895.788	0.0443
896.09	0.0292
896.391	0.0624
896.693	0.0544
896.994	0.0518
897.295	0.0358
897.596	0.0329
897.898	0.0358
898.199	0.0742
898.5	0.0411
898.801	0.0404
899.102	0.0573
899.403	0.0482
899.703	0.0444
900.004	0.0379
900.305	0.0289
900.606	0.0371
900.906	0.0386
901.207	0.0394
901.507	0.0523
901.808	0.0429
902.108	0.0332
902.409	0.0405
902.709	0.033
903.009	0.0026
903.309	0.0294
903.61	0.02
903.91	0.0075
904.21	0.0607
904.51	0.024
904.81	0.03
905.109	0.0047
905.409	0.0713
905.709	0.0537
906.009	0.0404
906.308	0.0268
906.608	0.0419
906.907	0.0207
907.207	-0.0053
907.506	0.0467
907.806	0.034
908.105	0.0301
908.404	0.0396
908.704	0.0501
909.003	0.0394
909.302	0.019
909.601	0.0515
909.9	0.0326
910.199	0.0242
910.498	-0.0094
910.797	0.0294
911.095	0.0539
911.394	0.0471
911.693	0.0541
911.991	0.0416
912.29	0.0142
912.589	0.0264
912.887	0.0216
913.185	0.0181
913.484	0.0349
913.782	0.0088
914.08	0.04
914.378	0.0476
914.677	0.0496
914.975	0.0177
915.273	0.0533
915.571	0.0155
915.869	0.0399
916.166	0.0243
916.464	0.0397
916.762	0.0272
917.06	0.0193
917.357	0.0457
917.655	0.0423
917.952	0.0122
918.25	0.0332
918.547	0.0458
918.845	0.0425
919.142	0.0526
919.439	0.0676
919.736	0.0285
920.034	0.0621
920.331	0.0411
920.628	0.0452
920.925	0.0295
921.222	-0.0006
921.518	0.0183
921.815	0.0036
922.112	0.0406
922.409	0.0376
922.705	0.0607
923.002	0.0269
923.299	0.0337
923.595	0.0268
923.891	0.0324
924.188	0.0098
924.484	0.0462
924.78	0.0605
925.077	0.0377
925.373	0.0237
925.669	0.0503
925.965	0.0263
926.261	0.0547
926.557	0.0314
926.853	0.0211
927.149	0.0405
927.444	0.0397
927.74	0.0507
928.036	0.0298
928.331	0.0219
928.627	-0.0103
928.923	0.0574
929.218	0.0462
929.513	0.047
929.809	0.0606
930.104	0.0184
930.399	0.0481
930.694	0.0094
930.99	0.0311
931.285	-0.008
931.58	-0.0086
931.875	0.0575
932.169	0.03
932.464	0.036
932.759	0.0414
933.054	0.0619
933.348	0.0183
933.643	-0.014
933.938	0.0596
934.232	0.0282
934.527	-0.0018
934.821	0.0223
935.115	0.0353
935.41	0.0465
935.704	0.0982
935.998	0.0741
936.292	0.0447
936.586	0.0716
936.88	0.0926
937.174	0.0144
937.468	0.0568
937.762	0.0609
938.056	0.0413
938.35	0.0494
938.643	0.1307
938.937	0.0209
939.23	0.033
939.524	0.0395
939.817	0.01
940.111	0.0355
940.404	-0.0057
940.698	-0.023
940.991	0.0367
941.284	0.0877
941.577	-0.0472
941.87	0.0101
942.163	0.0168
942.456	0.0507
942.749	0.033
943.042	0.0152
943.335	0.0661
943.628	0.276
943.92	0.023
944.213	0.0668
944.505	0.1094
944.798	0.0388
945.09	-0.0485
945.383	0.0887
945.675	0.0557
945.967	-0.003
946.26	0.0601
946.552	0.056
946.844	-0.0145
947.136	0.0839
947.428	0.1501
947.72	0.0948
948.012	0.0864
948.304	0.083
948.596	-0.0669
948.887	0.0413
949.179	-0.1559
949.471	0.1398
949.762	0.104
950.054	0.0543
950.345	0.0371
950.637	0.1551
950.928	0.02
951.219	-0.0165
951.511	0.0765
951.802	0.0582
952.093	0.0467
952.384	0.1081
952.675	0.0028
952.966	0.1316
953.257	0.0454
953.548	0.0912
953.839	-0.0692
954.13	0.0577
954.42	0.1166
954.711	0.0728
955.001	0.1207
955.292	0.0812
955.582	0.0291
955.873	-0.0877
956.163	0.0401
956.454	-0.0109
956.744	0.0691
957.034	-0.0972
957.324	-0.1042
957.614	-0.0431
957.904	-0.0606
958.194	0.1267
958.484	0.0054
958.774	0.0693
959.064	-0.041
959.353	0.0798
959.643	0.0951
959.933	-0.0082
960.222	-0.0197
960.512	0.0433
960.801	-0.0534
961.091	0.1202
961.38	0.0312
961.669	0.1105
961.959	-0.023
962.248	-0.1488
962.537	-0.0402
962.826	0.041
963.115	-0.1324
963.404	-0.0087
963.693	0.1101
963.982	0.2237
964.271	0.1932
964.559	0.1144
964.848	0.0103
965.137	-0.0319
965.425	-0.0109
965.714	-0.0991
966.002	0.0929
966.291	0.086
966.579	0.2629
966.867	0.0215
967.156	-0.0753
967.444	0.0062
967.732	0.1318
968.02	0.1902
968.308	0.1109
968.596	0.1681
968.884	-0.0258
969.172	-0.0747
969.459	-0.0402
969.747	-0.1615
970.035	0.0894
970.322	0.0672
970.61	0.0443
970.898	-0.0288
971.185	-0.1861
971.472	0.1336
971.76	0.1043
972.047	-0.0829
972.334	-0.1022
972.621	0.0485
972.909	0.1472
973.196	0.0674
973.483	-0.0898
973.77	0.0175
974.056	-0.0257
974.343	0.0853
974.63	0.0866
974.917	0.1356
975.203	-0.0837
975.49	0.0329
975.777	-0.0009
976.063	-0.0132
976.35	0.0489
976.636	0.1123
976.922	0.0182
977.209	0.0178
977.495	-0.0312
977.781	0.0444
978.067	-0.2046
978.353	-0.0092
978.639	0.0715
978.925	-0.0624
979.211	-0.1494
979.497	-0.0521
979.782	0.0668
980.068	0.0776
980.354	-0.1346
980.639	-0.3068
980.925	0.1208
981.21	0.1347
981.496	-0.1816
981.781	-0.1363
982.067	0.0443
982.352	-0.0058
982.637	-0.0299
982.922	-0.0675
983.207	-0.0172
983.492	-0.11
983.777	-0.0439
984.062	0.2409
984.347	0.0543
984.632	-0.0904
984.917	-0.0253
985.201	0.0434
985.486	-0.0149
985.771	0.0093
986.055	0.0241
986.34	-0.0848
986.624	-0.1334
986.908	0.1008
987.193	0.0198
987.477	0.1618
987.761	0.0049
988.045	-0.0241
988.329	-0.2582
988.613	0.3438
988.897	-0.1508
989.181	0.2296
989.465	0.0212
989.749	-0.0551
990.032	0.2193
990.316	-0.0392
990.6	0.1072
990.883	-0.2035
991.167	-0.0797
991.45	-0.0886
991.734	-0.239
992.017	-0.1622
992.3	0.0353
992.583	-0.1268
992.867	0.0715
993.15	-0.0998
993.433	-0.0508
993.716	0.3272
993.999	0.0611
994.282	-0.077
994.564	-0.1946
994.847	0.0728
995.13	0.2581
995.413	0.1358
995.695	-0.2078
995.978	-0.2058
996.26	-0.2048
996.543	-0.193
996.825	-0.1255
997.107	-0.1537
997.389	-0.3292
997.672	-0
997.954	0.3003
998.236	-0.3703
998.518	1.03
998.8	-0.207
999.082	0.2173
999.364	-0.709
999.645	0.048
999.927	0.1373
1000.209	0.0404
1000.491	-0.0296
1000.772	-0.0428
1001.054	-0.0751
1001.335	-0.0354
1001.616	-0.0841
1001.898	-0.1148
1002.179	0.1985
1002.46	0.0123
1002.742	-0.3776
1003.023	0.0205
1003.304	-0.3654
1003.585	0.1422
1003.866	0.1066
1004.147	-0.1258
1004.427	0.0398
1004.708	0.1016
1004.989	-0.3775
1005.269	0.267
1005.55	-0.3703
1005.831	-0.1393
1006.111	0.5408
1006.392	-0.0451
1006.672	-0.1146
1006.952	0.0666
1007.232	0.0998
1007.513	-0
1007.793	-1.1644
1008.073	0.1406
1008.353	0.1605
1008.633	0.2148
1008.913	-0.0034
1009.193	-0.1627
1009.472	-0
1009.752	0.6091
1010.032	-0
1010.312	0.127
1010.591	-0.5116
1010.871	0.1981
1011.15	-0.2777
1011.429	-0.2553
1011.709	-0.0645
1011.988	0.5656
1012.267	0.341
1012.547	-0.6407
1012.826	-0.7452
1013.105	0.161
1013.384	-0
1013.663	-0.4783
1013.941	0.0688
1014.22	0.043
1014.499	0.0571
1014.778	-0.2663
1015.056	0.1403
1015.335	-0.2835
1015.614	0.9023
1015.892	-0.02
1016.17	1.4624
1016.449	-0.0329
1016.727	-0.0563
1017.005	0.8846
1017.284	0.8846
1017.562	0.8846
