Data from G6_T2_Absorbance_15-45-11-373.txt Node
Date: Mon Sep 09 15:45:11 IST 2024
User: Optics Lab
Spectrometer: FLMS06900
Trigger mode: 0
Integration Time (sec): 6.000000E-3
Scans to average: 1
Electric dark correction enabled: true
Nonlinearity correction enabled: false
Boxcar width: 0
XAxis mode: Wavelengths
Number of Pixels in Spectrum: 2048
>>>>>Begin Spectral Data<<<<<
339.78	-0
340.159	-0
340.537	-0
340.915	-0
341.293	-0.1113
341.671	-0.0761
342.049	0.316
342.427	-0
342.805	0.0115
343.183	-0.9181
343.561	0.3448
343.939	-0.2426
344.317	-0
344.694	-0.9383
345.072	-0.2525
345.45	-0
345.827	-0.5072
346.205	-0.2433
346.583	-0
346.96	-1.8001
347.338	0.8045
347.715	0.3872
348.092	-0
348.47	0.0306
348.847	-0
349.224	0.1977
349.601	-0
349.979	-0.1404
350.356	-0.1026
350.733	0.4365
351.11	-0.3923
351.487	0.2677
351.864	-0
352.241	-1.4402
352.618	-0
352.995	-0.0339
353.372	0.2109
353.748	-0
354.125	-0
354.502	-0
354.878	0.4245
355.255	-0
355.632	-0
356.008	-0.4023
356.385	-0.1123
356.761	-0.2816
357.137	-0
357.514	0.3296
357.89	-0
358.266	-0
358.643	0.4776
359.019	-0
359.395	-0.362
359.771	-0
360.147	-0
360.523	0.3274
360.899	0.4541
361.275	-0.462
361.651	0.2703
362.027	0.5208
362.403	-0.3432
362.779	-1.3802
363.155	-0
363.53	0.9885
363.906	0.1303
364.282	-0
364.657	-0
365.033	0.9267
365.408	0.433
365.784	0.263
366.159	0.0524
366.535	-0
366.91	0.214
367.285	0.011
367.66	0.3389
368.036	-1.8139
368.411	0.0752
368.786	-0
369.161	-0
369.536	0.5869
369.911	-0.4838
370.286	-0
370.661	-0.1966
371.036	0.5894
371.411	-0.5935
371.786	0.3996
372.16	0.6179
372.535	-0
372.91	1.8269
373.285	1.9301
373.659	0.0921
374.034	0.0865
374.408	0.3469
374.783	0.3243
375.157	0.1744
375.532	0.4778
375.906	-1.1249
376.28	0.3966
376.655	0.1548
377.029	0.2191
377.403	0.3998
377.777	0.2398
378.151	-0.2431
378.525	0.4128
378.899	0.1174
379.273	0.1014
379.647	0.2453
380.021	0.0987
380.395	0.3726
380.769	0.4003
381.143	0.131
381.517	0.4576
381.89	0.688
382.264	0.1061
382.638	0.0744
383.011	-0.0335
383.385	0.4554
383.758	-0.0298
384.132	0.4569
384.505	0.0898
384.878	0.3875
385.252	0.4145
385.625	-0
385.998	0.1044
386.372	0.5834
386.745	0.4545
387.118	0.3663
387.491	0.0326
387.864	0.2788
388.237	0.3972
388.61	0.6914
388.983	0.4773
389.356	0.2549
389.729	0.3051
390.101	0.2436
390.474	0.308
390.847	0.5551
391.219	0.5056
391.592	0.2887
391.965	-0
392.337	0.4496
392.71	0.3512
393.082	0.3837
393.455	0.345
393.827	0.2276
394.199	0.1537
394.572	0.2661
394.944	0.189
395.316	0.2592
395.688	0.3891
396.06	0.0525
396.433	0.3585
396.805	0.2092
397.177	0.4327
397.549	0.3398
397.92	0.4213
398.292	0.1442
398.664	0.2453
399.036	0.2063
399.408	0.2663
399.779	0.2051
400.151	0.1974
400.523	0.2969
400.894	0.1933
401.266	0.3743
401.637	0.321
402.009	0.1715
402.38	0.2034
402.752	0.2638
403.123	0.4102
403.494	0.3349
403.866	0.3402
404.237	0.3115
404.608	0.3051
404.979	0.2579
405.35	0.3838
405.721	0.359
406.092	0.33
406.463	0.1596
406.834	0.3453
407.205	0.2925
407.576	0.2723
407.947	0.252
408.317	0.1899
408.688	0.2727
409.059	0.2466
409.429	0.2597
409.8	0.3165
410.171	0.2581
410.541	0.3592
410.912	0.338
411.282	0.2358
411.652	0.2638
412.023	0.2161
412.393	0.2464
412.763	0.2248
413.133	0.2279
413.504	0.232
413.874	0.2432
414.244	0.2907
414.614	0.2682
414.984	0.207
415.354	0.3758
415.724	0.3097
416.094	0.2657
416.463	0.2823
416.833	0.2656
417.203	0.2467
417.573	0.3143
417.942	0.2576
418.312	0.3274
418.682	0.262
419.051	0.1811
419.421	0.2561
419.79	0.2225
420.159	0.243
420.529	0.2548
420.898	0.2945
421.267	0.2199
421.637	0.2933
422.006	0.2009
422.375	0.2838
422.744	0.3116
423.113	0.2409
423.482	0.2875
423.851	0.285
424.22	0.2138
424.589	0.2876
424.958	0.2553
425.327	0.2906
425.695	0.2303
426.064	0.2362
426.433	0.2686
426.802	0.2385
427.17	0.2276
427.539	0.2517
427.907	0.274
428.276	0.2328
428.644	0.3026
429.013	0.2156
429.381	0.2107
429.749	0.2251
430.118	0.2377
430.486	0.2073
430.854	0.273
431.222	0.2397
431.59	0.2943
431.958	0.2686
432.326	0.2812
432.694	0.2168
433.062	0.2772
433.43	0.1768
433.798	0.2433
434.166	0.272
434.533	0.2145
434.901	0.1949
435.269	0.2307
435.636	0.1996
436.004	0.2545
436.372	0.1939
436.739	0.2711
437.107	0.2321
437.474	0.2775
437.841	0.2053
438.209	0.2274
438.576	0.2012
438.943	0.2231
439.31	0.2345
439.678	0.2722
440.045	0.2445
440.412	0.2132
440.779	0.2361
441.146	0.2514
441.513	0.2646
441.88	0.2311
442.247	0.2421
442.613	0.2469
442.98	0.229
443.347	0.2115
443.714	0.2534
444.08	0.2476
444.447	0.2321
444.813	0.2376
445.18	0.2141
445.546	0.2365
445.913	0.2334
446.279	0.2257
446.646	0.2453
447.012	0.2519
447.378	0.2506
447.744	0.255
448.111	0.2666
448.477	0.2329
448.843	0.2613
449.209	0.2552
449.575	0.2285
449.941	0.2637
450.307	0.2609
450.673	0.2745
451.039	0.2651
451.404	0.2555
451.77	0.2348
452.136	0.2672
452.502	0.2668
452.867	0.2281
453.233	0.2379
453.598	0.227
453.964	0.2588
454.329	0.2576
454.695	0.2653
455.06	0.2472
455.425	0.2662
455.791	0.2455
456.156	0.261
456.521	0.2385
456.886	0.2387
457.251	0.2278
457.616	0.2331
457.981	0.2572
458.346	0.2229
458.711	0.2378
459.076	0.2423
459.441	0.2544
459.806	0.2506
460.171	0.2186
460.535	0.2435
460.9	0.2644
461.265	0.2434
461.629	0.2704
461.994	0.2286
462.358	0.2462
462.723	0.2527
463.087	0.2745
463.452	0.2304
463.816	0.2538
464.18	0.2413
464.544	0.274
464.909	0.2409
465.273	0.2203
465.637	0.2276
466.001	0.246
466.365	0.2619
466.729	0.2361
467.093	0.2528
467.457	0.2664
467.821	0.2608
468.185	0.2557
468.548	0.2667
468.912	0.2539
469.276	0.239
469.639	0.2391
470.003	0.2259
470.367	0.2271
470.73	0.2296
471.094	0.2561
471.457	0.274
471.82	0.2479
472.184	0.2714
472.547	0.2523
472.91	0.2368
473.274	0.2393
473.637	0.258
474	0.2566
474.363	0.2526
474.726	0.2545
475.089	0.249
475.452	0.2644
475.815	0.2665
476.178	0.2775
476.54	0.262
476.903	0.2672
477.266	0.2675
477.629	0.2509
477.991	0.2579
478.354	0.2387
478.716	0.2584
479.079	0.2375
479.441	0.2628
479.804	0.2757
480.166	0.2626
480.529	0.2506
480.891	0.2414
481.253	0.2539
481.615	0.2546
481.978	0.261
482.34	0.2724
482.702	0.2546
483.064	0.2509
483.426	0.2388
483.788	0.2621
484.15	0.2503
484.512	0.2625
484.873	0.2601
485.235	0.266
485.597	0.239
485.959	0.2375
486.32	0.2599
486.682	0.2505
487.043	0.2535
487.405	0.2575
487.766	0.2538
488.128	0.2668
488.489	0.2522
488.85	0.2498
489.212	0.2475
489.573	0.2566
489.934	0.2348
490.295	0.2744
490.657	0.2563
491.018	0.2611
491.379	0.2612
491.74	0.2571
492.101	0.2596
492.461	0.26
492.822	0.2527
493.183	0.2577
493.544	0.2537
493.905	0.2394
494.265	0.255
494.626	0.2569
494.987	0.2593
495.347	0.248
495.708	0.2531
496.068	0.2476
496.429	0.2631
496.789	0.255
497.149	0.2691
497.509	0.2662
497.87	0.2581
498.23	0.2563
498.59	0.2607
498.95	0.2571
499.31	0.2668
499.67	0.2519
500.03	0.2675
500.39	0.2549
500.75	0.2472
501.11	0.2654
501.47	0.2591
501.83	0.252
502.189	0.2547
502.549	0.2373
502.909	0.248
503.268	0.2472
503.628	0.2607
503.987	0.2727
504.347	0.2734
504.706	0.2594
505.065	0.2668
505.425	0.2492
505.784	0.2559
506.143	0.2592
506.502	0.2454
506.862	0.2631
507.221	0.2603
507.58	0.2529
507.939	0.268
508.298	0.2688
508.657	0.2713
509.015	0.2685
509.374	0.2722
509.733	0.256
510.092	0.2598
510.451	0.2621
510.809	0.2675
511.168	0.2678
511.526	0.2631
511.885	0.2496
512.243	0.2668
512.602	0.2619
512.96	0.2677
513.319	0.2441
513.677	0.2626
514.035	0.2663
514.393	0.2576
514.751	0.2564
515.11	0.2602
515.468	0.2594
515.826	0.2673
516.184	0.2703
516.542	0.2572
516.9	0.2458
517.257	0.258
517.615	0.2579
517.973	0.2511
518.331	0.2607
518.688	0.2651
519.046	0.2537
519.404	0.2592
519.761	0.2583
520.119	0.2551
520.476	0.2489
520.834	0.2677
521.191	0.2557
521.548	0.2519
521.906	0.2658
522.263	0.2572
522.62	0.263
522.977	0.2636
523.334	0.2666
523.691	0.2641
524.048	0.2613
524.405	0.2579
524.762	0.2668
525.119	0.2706
525.476	0.2601
525.833	0.2596
526.189	0.267
526.546	0.2566
526.903	0.241
527.259	0.2617
527.616	0.2573
527.973	0.2626
528.329	0.2618
528.685	0.2574
529.042	0.2657
529.398	0.2553
529.755	0.2614
530.111	0.2642
530.467	0.2497
530.823	0.2727
531.179	0.2566
531.535	0.256
531.891	0.2524
532.247	0.256
532.603	0.2602
532.959	0.2675
533.315	0.2646
533.671	0.2606
534.027	0.2674
534.382	0.2638
534.738	0.265
535.094	0.2635
535.449	0.2675
535.805	0.2658
536.16	0.252
536.516	0.2557
536.871	0.2589
537.226	0.2554
537.582	0.2572
537.937	0.2621
538.292	0.2578
538.647	0.2599
539.003	0.2679
539.358	0.272
539.713	0.2683
540.068	0.279
540.423	0.2719
540.778	0.2668
541.132	0.2573
541.487	0.2645
541.842	0.2642
542.197	0.2573
542.552	0.2628
542.906	0.254
543.261	0.267
543.615	0.258
543.97	0.2755
544.324	0.2833
544.679	0.2853
545.033	0.2705
545.387	0.2727
545.742	0.2744
546.096	0.2821
546.45	0.2788
546.804	0.2743
547.158	0.2813
547.512	0.2734
547.866	0.2639
548.22	0.259
548.574	0.2715
548.928	0.2741
549.282	0.2686
549.636	0.2728
549.99	0.2774
550.343	0.2852
550.697	0.2826
551.05	0.2794
551.404	0.2801
551.758	0.271
552.111	0.2815
552.464	0.2699
552.818	0.2683
553.171	0.2803
553.524	0.2788
553.878	0.2839
554.231	0.2747
554.584	0.29
554.937	0.288
555.29	0.2887
555.643	0.2805
555.996	0.2887
556.349	0.2838
556.702	0.2784
557.055	0.2845
557.408	0.2896
557.76	0.286
558.113	0.2918
558.466	0.2861
558.818	0.3027
559.171	0.2905
559.523	0.2897
559.876	0.2961
560.228	0.2851
560.581	0.293
560.933	0.2845
561.285	0.2942
561.638	0.2818
561.99	0.2966
562.342	0.2961
562.694	0.2945
563.046	0.2969
563.398	0.3026
563.75	0.3049
564.102	0.2992
564.454	0.2953
564.806	0.3019
565.158	0.3059
565.509	0.3024
565.861	0.308
566.213	0.2957
566.564	0.3049
566.916	0.3052
567.267	0.3031
567.619	0.3025
567.97	0.3158
568.322	0.2995
568.673	0.3047
569.024	0.3018
569.376	0.3049
569.727	0.3074
570.078	0.3011
570.429	0.3126
570.78	0.2997
571.131	0.2995
571.482	0.3104
571.833	0.3198
572.184	0.3147
572.535	0.3204
572.885	0.3214
573.236	0.305
573.587	0.3145
573.938	0.3176
574.288	0.3182
574.639	0.3156
574.989	0.3173
575.34	0.3234
575.69	0.3239
576.04	0.3263
576.391	0.3145
576.741	0.3257
577.091	0.326
577.442	0.3261
577.792	0.3246
578.142	0.3191
578.492	0.3149
578.842	0.33
579.192	0.3312
579.542	0.3345
579.892	0.3356
580.241	0.333
580.591	0.3389
580.941	0.336
581.291	0.3431
581.64	0.3447
581.99	0.3409
582.339	0.3356
582.689	0.3394
583.038	0.3448
583.388	0.355
583.737	0.348
584.086	0.3437
584.436	0.3335
584.785	0.3544
585.134	0.3442
585.483	0.344
585.832	0.3411
586.181	0.3512
586.53	0.3476
586.879	0.3469
587.228	0.3501
587.577	0.358
587.926	0.3563
588.275	0.3568
588.623	0.3638
588.972	0.3635
589.321	0.3732
589.669	0.3656
590.018	0.3729
590.366	0.3657
590.715	0.3753
591.063	0.3753
591.412	0.3751
591.76	0.3814
592.108	0.3855
592.456	0.3767
592.805	0.3829
593.153	0.3897
593.501	0.3933
593.849	0.3887
594.197	0.3906
594.545	0.3984
594.893	0.3964
595.24	0.3934
595.588	0.4006
595.936	0.4082
596.284	0.3973
596.631	0.3981
596.979	0.4034
597.327	0.4097
597.674	0.4194
598.022	0.4111
598.369	0.4116
598.716	0.4051
599.064	0.4146
599.411	0.4136
599.758	0.4078
600.105	0.4155
600.453	0.4204
600.8	0.4214
601.147	0.4209
601.494	0.4363
601.841	0.4332
602.188	0.4278
602.535	0.4399
602.881	0.4336
603.228	0.4318
603.575	0.4397
603.922	0.4489
604.268	0.4505
604.615	0.4447
604.961	0.4495
605.308	0.4425
605.654	0.4575
606.001	0.4534
606.347	0.4548
606.693	0.4503
607.04	0.4575
607.386	0.4652
607.732	0.467
608.078	0.4675
608.424	0.4564
608.77	0.4527
609.116	0.4747
609.462	0.4605
609.808	0.4682
610.154	0.4647
610.5	0.4553
610.846	0.4676
611.191	0.4682
611.537	0.4748
611.883	0.4754
612.228	0.4715
612.574	0.4714
612.919	0.4713
613.265	0.4742
613.61	0.4697
613.955	0.4697
614.301	0.481
614.646	0.4757
614.991	0.4774
615.336	0.4746
615.681	0.4824
616.026	0.4791
616.371	0.4917
616.716	0.4892
617.061	0.483
617.406	0.4753
617.751	0.4906
618.096	0.4873
618.44	0.4811
618.785	0.4875
619.13	0.4912
619.474	0.4884
619.819	0.4871
620.163	0.4918
620.508	0.4701
620.852	0.4955
621.197	0.4847
621.541	0.4864
621.885	0.4939
622.229	0.4804
622.574	0.4847
622.918	0.4896
623.262	0.4846
623.606	0.4817
623.95	0.4823
624.294	0.4833
624.638	0.4917
624.981	0.4907
625.325	0.4931
625.669	0.4932
626.013	0.4879
626.356	0.4859
626.7	0.4942
627.043	0.4879
627.387	0.4905
627.73	0.505
628.074	0.4893
628.417	0.4972
628.761	0.5056
629.104	0.4937
629.447	0.4975
629.79	0.4936
630.133	0.4989
630.476	0.4967
630.819	0.4978
631.162	0.5088
631.505	0.5033
631.848	0.5093
632.191	0.4974
632.534	0.5079
632.877	0.5086
633.219	0.4942
633.562	0.5038
633.905	0.5147
634.247	0.5067
634.59	0.5137
634.932	0.5106
635.275	0.51
635.617	0.512
635.959	0.5037
636.302	0.509
636.644	0.5249
636.986	0.5122
637.328	0.5255
637.67	0.5227
638.012	0.5357
638.354	0.5334
638.696	0.5507
639.038	0.5414
639.38	0.5459
639.722	0.5387
640.064	0.5442
640.405	0.5426
640.747	0.5574
641.089	0.5382
641.43	0.5253
641.772	0.5509
642.113	0.5583
642.455	0.5585
642.796	0.5562
643.137	0.5641
643.479	0.5559
643.82	0.5785
644.161	0.5743
644.502	0.5752
644.843	0.579
645.185	0.5875
645.526	0.591
645.866	0.5948
646.207	0.5914
646.548	0.5842
646.889	0.6003
647.23	0.5971
647.571	0.5983
647.911	0.6066
648.252	0.6002
648.592	0.6082
648.933	0.6124
649.273	0.6191
649.614	0.6237
649.954	0.6146
650.295	0.6167
650.635	0.6351
650.975	0.6297
651.315	0.6301
651.656	0.6439
651.996	0.6331
652.336	0.6381
652.676	0.6574
653.016	0.6494
653.356	0.6606
653.695	0.6475
654.035	0.6464
654.375	0.6438
654.715	0.6592
655.054	0.6519
655.394	0.6736
655.734	0.6763
656.073	0.6627
656.413	0.6721
656.752	0.6883
657.091	0.6709
657.431	0.6781
657.77	0.6901
658.109	0.6797
658.449	0.6832
658.788	0.6849
659.127	0.6832
659.466	0.6887
659.805	0.6943
660.144	0.7088
660.483	0.7
660.822	0.7143
661.16	0.6967
661.499	0.6999
661.838	0.6988
662.177	0.7
662.515	0.719
662.854	0.7062
663.192	0.7114
663.531	0.7168
663.869	0.6966
664.208	0.6949
664.546	0.7031
664.884	0.695
665.222	0.7125
665.561	0.705
665.899	0.7083
666.237	0.7117
666.575	0.7231
666.913	0.7367
667.251	0.717
667.589	0.7354
667.927	0.709
668.264	0.7135
668.602	0.7158
668.94	0.7023
669.278	0.7025
669.615	0.6958
669.953	0.7037
670.29	0.6947
670.628	0.6904
670.965	0.6819
671.303	0.6673
671.64	0.6809
671.977	0.687
672.314	0.6959
672.652	0.6842
672.989	0.6698
673.326	0.6784
673.663	0.6689
674	0.6732
674.337	0.6602
674.674	0.6526
675.01	0.6382
675.347	0.6498
675.684	0.6503
676.021	0.6312
676.357	0.6015
676.694	0.6159
677.031	0.5905
677.367	0.5911
677.704	0.5939
678.04	0.5659
678.376	0.573
678.713	0.5576
679.049	0.5724
679.385	0.5706
679.721	0.5483
680.057	0.5534
680.393	0.5425
680.73	0.5265
681.065	0.5436
681.401	0.5379
681.737	0.5385
682.073	0.5181
682.409	0.5015
682.745	0.4907
683.08	0.4902
683.416	0.4817
683.752	0.4699
684.087	0.4525
684.423	0.4438
684.758	0.4422
685.093	0.4384
685.429	0.4422
685.764	0.4335
686.099	0.425
686.435	0.4247
686.77	0.4253
687.105	0.4263
687.44	0.4043
687.775	0.4024
688.11	0.4039
688.445	0.3983
688.78	0.3878
689.114	0.3923
689.449	0.3746
689.784	0.3697
690.119	0.3596
690.453	0.3627
690.788	0.3533
691.122	0.3446
691.457	0.3372
691.791	0.3411
692.126	0.3324
692.46	0.3267
692.794	0.3259
693.128	0.3184
693.463	0.3245
693.797	0.3223
694.131	0.3275
694.465	0.3216
694.799	0.3167
695.133	0.3155
695.467	0.3062
695.801	0.3057
696.134	0.2949
696.468	0.307
696.802	0.3032
697.135	0.2967
697.469	0.297
697.803	0.2938
698.136	0.2878
698.47	0.28
698.803	0.2788
699.136	0.2806
699.47	0.2826
699.803	0.2736
700.136	0.2721
700.469	0.2699
700.802	0.2622
701.135	0.2789
701.468	0.2787
701.801	0.2563
702.134	0.2739
702.467	0.2761
702.8	0.2682
703.133	0.2757
703.465	0.2703
703.798	0.2662
704.131	0.2519
704.463	0.2534
704.796	0.2618
705.128	0.2597
705.461	0.2609
705.793	0.2457
706.125	0.246
706.458	0.252
706.79	0.2493
707.122	0.2486
707.454	0.2422
707.786	0.2399
708.118	0.2489
708.45	0.2517
708.782	0.2516
709.114	0.2434
709.446	0.2469
709.778	0.2521
710.11	0.2512
710.441	0.2573
710.773	0.2543
711.104	0.2503
711.436	0.2404
711.768	0.2427
712.099	0.2509
712.43	0.2427
712.762	0.235
713.093	0.2409
713.424	0.2452
713.755	0.2388
714.087	0.2262
714.418	0.2472
714.749	0.2453
715.08	0.2466
715.411	0.2427
715.742	0.2327
716.072	0.2426
716.403	0.2559
716.734	0.2418
717.065	0.2401
717.395	0.233
717.726	0.2391
718.057	0.2339
718.387	0.2331
718.718	0.2279
719.048	0.2318
719.378	0.2318
719.709	0.2292
720.039	0.241
720.369	0.228
720.699	0.236
721.029	0.2344
721.359	0.2307
721.689	0.2407
722.019	0.2295
722.349	0.2309
722.679	0.2345
723.009	0.2299
723.339	0.2429
723.669	0.2372
723.998	0.2432
724.328	0.2353
724.657	0.2428
724.987	0.2313
725.316	0.2378
725.646	0.2404
725.975	0.2438
726.305	0.2448
726.634	0.234
726.963	0.228
727.292	0.237
727.621	0.2416
727.95	0.2319
728.279	0.2247
728.608	0.2211
728.937	0.2201
729.266	0.2231
729.595	0.2344
729.924	0.2421
730.253	0.245
730.581	0.2163
730.91	0.2214
731.238	0.2349
731.567	0.2375
731.896	0.2361
732.224	0.2397
732.552	0.2298
732.881	0.2224
733.209	0.2297
733.537	0.2343
733.865	0.2276
734.194	0.2327
734.522	0.2263
734.85	0.2278
735.178	0.2448
735.506	0.2194
735.833	0.232
736.161	0.253
736.489	0.2203
736.817	0.221
737.144	0.2341
737.472	0.2249
737.8	0.2341
738.127	0.2331
738.455	0.2289
738.782	0.2248
739.11	0.227
739.437	0.2209
739.764	0.2298
740.091	0.2211
740.419	0.2226
740.746	0.2314
741.073	0.2295
741.4	0.2209
741.727	0.2296
742.054	0.2249
742.381	0.2279
742.708	0.231
743.034	0.2274
743.361	0.2391
743.688	0.2379
744.014	0.2445
744.341	0.2356
744.668	0.231
744.994	0.241
745.321	0.2317
745.647	0.2333
745.973	0.235
746.3	0.228
746.626	0.2257
746.952	0.2338
747.278	0.2282
747.604	0.2269
747.93	0.2262
748.256	0.2118
748.582	0.2197
748.908	0.2189
749.234	0.221
749.56	0.2289
749.885	0.2281
750.211	0.231
750.537	0.2162
750.862	0.2267
751.188	0.2374
751.513	0.2377
751.839	0.2241
752.164	0.224
752.49	0.2182
752.815	0.2117
753.14	0.2139
753.465	0.2183
753.79	0.2159
754.116	0.2303
754.441	0.225
754.766	0.2256
755.091	0.2283
755.415	0.2159
755.74	0.2082
756.065	0.2207
756.39	0.2222
756.714	0.2398
757.039	0.2343
757.364	0.2213
757.688	0.2288
758.013	0.2266
758.337	0.2214
758.662	0.225
758.986	0.2224
759.31	0.2281
759.634	0.2255
759.959	0.2211
760.283	0.23
760.607	0.2331
760.931	0.2276
761.255	0.2274
761.579	0.2204
761.903	0.2247
762.226	0.2211
762.55	0.2336
762.874	0.227
763.198	0.2163
763.521	0.2301
763.845	0.2265
764.168	0.2285
764.492	0.2325
764.815	0.2314
765.139	0.2446
765.462	0.2165
765.785	0.2223
766.109	0.2195
766.432	0.2269
766.755	0.2314
767.078	0.2159
767.401	0.2182
767.724	0.2142
768.047	0.2048
768.37	0.2249
768.693	0.2313
769.015	0.2202
769.338	0.2282
769.661	0.2337
769.983	0.2263
770.306	0.2301
770.628	0.2122
770.951	0.2156
771.273	0.2003
771.596	0.2128
771.918	0.2109
772.24	0.2172
772.562	0.2247
772.885	0.2306
773.207	0.2179
773.529	0.2307
773.851	0.2186
774.173	0.2276
774.495	0.2448
774.817	0.2409
775.138	0.2389
775.46	0.2422
775.782	0.2483
776.103	0.2219
776.425	0.2229
776.747	0.2257
777.068	0.2293
777.39	0.2262
777.711	0.2147
778.032	0.222
778.354	0.2088
778.675	0.2306
778.996	0.2252
779.317	0.2147
779.638	0.2304
779.959	0.2261
780.28	0.2248
780.601	0.2242
780.922	0.2203
781.243	0.2233
781.564	0.225
781.885	0.2165
782.205	0.2232
782.526	0.1972
782.847	0.2179
783.167	0.219
783.488	0.2123
783.808	0.2082
784.128	0.2046
784.449	0.2404
784.769	0.2201
785.089	0.2209
785.409	0.2095
785.73	0.2191
786.05	0.2283
786.37	0.2198
786.69	0.2224
787.01	0.2115
787.329	0.223
787.649	0.211
787.969	0.2039
788.289	0.1955
788.608	0.2109
788.928	0.2113
789.248	0.2168
789.567	0.2156
789.887	0.2069
790.206	0.2175
790.525	0.2099
790.845	0.2141
791.164	0.2155
791.483	0.2211
791.802	0.2205
792.121	0.2195
792.44	0.2271
792.76	0.226
793.078	0.2373
793.397	0.2357
793.716	0.2323
794.035	0.224
794.354	0.2132
794.672	0.2274
794.991	0.2331
795.31	0.2254
795.628	0.2233
795.947	0.2145
796.265	0.2252
796.584	0.2095
796.902	0.2105
797.22	0.2064
797.538	0.2086
797.857	0.2083
798.175	0.2068
798.493	0.225
798.811	0.2247
799.129	0.2252
799.447	0.2207
799.765	0.2253
800.083	0.2042
800.4	0.2306
800.718	0.2214
801.036	0.2348
801.353	0.2285
801.671	0.2427
801.988	0.2262
802.306	0.2249
802.623	0.2192
802.941	0.2419
803.258	0.2319
803.575	0.2236
803.892	0.2038
804.21	0.2016
804.527	0.1897
804.844	0.1972
805.161	0.1792
805.478	0.1971
805.795	0.1907
806.111	0.2041
806.428	0.2177
806.745	0.2268
807.062	0.2328
807.378	0.2191
807.695	0.2174
808.011	0.2339
808.328	0.2169
808.644	0.2298
808.961	0.224
809.277	0.2354
809.593	0.239
809.91	0.2162
810.226	0.2183
810.542	0.2227
810.858	0.2152
811.174	0.215
811.49	0.2158
811.806	0.2223
812.122	0.2201
812.438	0.2467
812.753	0.2145
813.069	0.2204
813.385	0.2072
813.7	0.1927
814.016	0.202
814.331	0.198
814.647	0.2118
814.962	0.2152
815.278	0.2096
815.593	0.2089
815.908	0.215
816.223	0.2038
816.538	0.2224
816.854	0.2049
817.169	0.2097
817.484	0.2329
817.799	0.2243
818.113	0.229
818.428	0.2423
818.743	0.242
819.058	0.219
819.372	0.1981
819.687	0.2104
820.002	0.2078
820.316	0.197
820.631	0.2111
820.945	0.2043
821.259	0.2197
821.574	0.2179
821.888	0.2005
822.202	0.1973
822.516	0.2121
822.83	0.2148
823.145	0.1991
823.459	0.2221
823.772	0.2334
824.086	0.2314
824.4	0.2314
824.714	0.2143
825.028	0.2214
825.341	0.2139
825.655	0.2282
825.969	0.2196
826.282	0.2154
826.596	0.2392
826.909	0.2236
827.222	0.2246
827.536	0.1992
827.849	0.2121
828.162	0.2084
828.475	0.2213
828.789	0.2205
829.102	0.233
829.415	0.243
829.728	0.2326
830.041	0.2016
830.353	0.2049
830.666	0.1992
830.979	0.238
831.292	0.2253
831.604	0.2163
831.917	0.2216
832.229	0.2193
832.542	0.2152
832.854	0.2203
833.167	0.2028
833.479	0.233
833.791	0.2155
834.104	0.207
834.416	0.2076
834.728	0.2173
835.04	0.2264
835.352	0.2241
835.664	0.2153
835.976	0.1951
836.288	0.213
836.599	0.2235
836.911	0.2298
837.223	0.2305
837.535	0.2235
837.846	0.2281
838.158	0.2221
838.469	0.2278
838.781	0.216
839.092	0.2242
839.403	0.2251
839.715	0.2077
840.026	0.2109
840.337	0.2394
840.648	0.2124
840.959	0.2145
841.27	0.2269
841.581	0.2116
841.892	0.2221
842.203	0.2025
842.514	0.2024
842.825	0.2216
843.135	0.2181
843.446	0.2129
843.757	0.2457
844.067	0.2064
844.378	0.2165
844.688	0.2127
844.999	0.237
845.309	0.2177
845.619	0.2102
845.929	0.2287
846.24	0.2184
846.55	0.2223
846.86	0.2205
847.17	0.2098
847.48	0.2235
847.79	0.2064
848.1	0.205
848.409	0.1858
848.719	0.2201
849.029	0.2047
849.338	0.1922
849.648	0.2082
849.958	0.1936
850.267	0.2118
850.577	0.2056
850.886	0.2178
851.195	0.2334
851.505	0.213
851.814	0.2218
852.123	0.1996
852.432	0.2143
852.741	0.2012
853.05	0.2055
853.359	0.221
853.668	0.2364
853.977	0.2251
854.286	0.2369
854.595	0.2036
854.903	0.2429
855.212	0.22
855.521	0.2103
855.829	0.2341
856.138	0.2403
856.446	0.2418
856.754	0.226
857.063	0.2327
857.371	0.1998
857.679	0.2232
857.987	0.2242
858.296	0.2077
858.604	0.2137
858.912	0.2138
859.22	0.1952
859.527	0.2077
859.835	0.2237
860.143	0.2565
860.451	0.2331
860.759	0.194
861.066	0.2107
861.374	0.2049
861.681	0.2169
861.989	0.2167
862.296	0.2157
862.604	0.226
862.911	0.1985
863.218	0.216
863.526	0.2134
863.833	0.2038
864.14	0.1984
864.447	0.2245
864.754	0.2099
865.061	0.2224
865.368	0.2212
865.675	0.2139
865.981	0.1907
866.288	0.2276
866.595	0.2336
866.901	0.2262
867.208	0.2162
867.515	0.2198
867.821	0.2012
868.127	0.2216
868.434	0.2238
868.74	0.2255
869.046	0.2425
869.353	0.2281
869.659	0.219
869.965	0.2184
870.271	0.2292
870.577	0.2011
870.883	0.2028
871.189	0.2097
871.495	0.2475
871.8	0.2664
872.106	0.1961
872.412	0.2187
872.717	0.1939
873.023	0.2222
873.329	0.233
873.634	0.2314
873.939	0.224
874.245	0.2346
874.55	0.2003
874.855	0.2146
875.161	0.1833
875.466	0.2054
875.771	0.2171
876.076	0.2238
876.381	0.2239
876.686	0.2154
876.991	0.2145
877.295	0.2204
877.6	0.2385
877.905	0.2149
878.21	0.2561
878.514	0.2397
878.819	0.2175
879.123	0.1946
879.428	0.2247
879.732	0.2239
880.036	0.2258
880.341	0.2475
880.645	0.2519
880.949	0.235
881.253	0.2375
881.557	0.2162
881.861	0.2488
882.165	0.1894
882.469	0.2164
882.773	0.1988
883.077	0.2237
883.381	0.2149
883.684	0.2394
883.988	0.2067
884.292	0.2296
884.595	0.2116
884.899	0.2369
885.202	0.2448
885.505	0.2252
885.809	0.2271
886.112	0.2246
886.415	0.1965
886.718	0.225
887.022	0.2219
887.325	0.2084
887.628	0.2357
887.931	0.2011
888.233	0.1982
888.536	0.2383
888.839	0.2016
889.142	0.1839
889.444	0.2197
889.747	0.2292
890.05	0.2193
890.352	0.2328
890.655	0.2516
890.957	0.2346
891.259	0.1965
891.562	0.2274
891.864	0.2209
892.166	0.2551
892.468	0.2281
892.77	0.2374
893.072	0.2261
893.374	0.2078
893.676	0.2187
893.978	0.2188
894.28	0.2159
894.582	0.2404
894.883	0.2274
895.185	0.2092
895.487	0.2241
895.788	0.2024
896.09	0.2188
896.391	0.2743
896.693	0.2278
896.994	0.1872
897.295	0.2023
897.596	0.1916
897.898	0.2133
898.199	0.233
898.5	0.2212
898.801	0.2298
899.102	0.2408
899.403	0.2532
899.703	0.2387
900.004	0.2488
900.305	0.2282
900.606	0.2235
900.906	0.2449
901.207	0.2306
901.507	0.2299
901.808	0.2186
902.108	0.2182
902.409	0.2061
902.709	0.2283
903.009	0.2113
903.309	0.2166
903.61	0.2268
903.91	0.2019
904.21	0.2201
904.51	0.2106
904.81	0.2261
905.109	0.2481
905.409	0.2134
905.709	0.2665
906.009	0.2163
906.308	0.2359
906.608	0.2365
906.907	0.2114
907.207	0.1856
907.506	0.1899
907.806	0.2164
908.105	0.2052
908.404	0.2259
908.704	0.2166
909.003	0.2245
909.302	0.2296
909.601	0.229
909.9	0.2178
910.199	0.2594
910.498	0.2096
910.797	0.2263
911.095	0.2508
911.394	0.2428
911.693	0.2257
911.991	0.2258
912.29	0.1742
912.589	0.1963
912.887	0.19
913.185	0.2131
913.484	0.2071
913.782	0.2068
914.08	0.2292
914.378	0.2065
914.677	0.2384
914.975	0.2263
915.273	0.2572
915.571	0.2145
915.869	0.2089
916.166	0.2013
916.464	0.2555
916.762	0.2193
917.06	0.2346
917.357	0.2422
917.655	0.2502
917.952	0.2317
918.25	0.2469
918.547	0.2115
918.845	0.2152
919.142	0.2204
919.439	0.2481
919.736	0.232
920.034	0.2198
920.331	0.2522
920.628	0.2515
920.925	0.2144
921.222	0.1876
921.518	0.1916
921.815	0.1896
922.112	0.2327
922.409	0.251
922.705	0.2363
923.002	0.212
923.299	0.2241
923.595	0.2048
923.891	0.2437
924.188	0.205
924.484	0.2124
924.78	0.2532
925.077	0.2105
925.373	0.1981
925.669	0.1832
925.965	0.2481
926.261	0.2804
926.557	0.1982
926.853	0.2235
927.149	0.227
927.444	0.2383
927.74	0.2279
928.036	0.229
928.331	0.2215
928.627	0.1901
928.923	0.2281
929.218	0.2115
929.513	0.2525
929.809	0.2447
930.104	0.2254
930.399	0.242
930.694	0.2007
930.99	0.1753
931.285	0.2334
931.58	0.1892
931.875	0.2437
932.169	0.1813
932.464	0.2036
932.759	0.2219
933.054	0.2028
933.348	0.2944
933.643	0.2491
933.938	0.2072
934.232	0.2748
934.527	0.1603
934.821	0.2668
935.115	0.2828
935.41	0.2246
935.704	0.2629
935.998	0.2434
936.292	0.178
936.586	0.1865
936.88	0.2423
937.174	0.2505
937.468	0.2493
937.762	0.3404
938.056	0.1956
938.35	0.2061
938.643	0.2801
938.937	0.2739
939.23	0.201
939.524	0.2252
939.817	0.1327
940.111	0.2148
940.404	0.2597
940.698	0.2331
940.991	0.2238
941.284	0.2687
941.577	0.3149
941.87	0.1282
942.163	0.2029
942.456	0.2384
942.749	0.2023
943.042	0.2377
943.335	0.377
943.628	0.3544
943.92	0.2998
944.213	0.1923
944.505	0.5731
944.798	0.0465
945.09	0.1497
945.383	0.2798
945.675	0.3208
945.967	0.2648
946.26	0.2035
946.552	0.3458
946.844	0.1189
947.136	0.3488
947.428	-0
947.72	0.1575
948.012	0.2784
948.304	0.1375
948.596	0.204
948.887	0.196
949.179	0.0469
949.471	0.1643
949.762	0.1364
950.054	0.1877
950.345	0.405
950.637	0.2419
950.928	0.3168
951.219	0.1132
951.511	0.3353
951.802	0.204
952.093	0.1742
952.384	0.363
952.675	0.5117
952.966	0.2817
953.257	0.143
953.548	0.7267
953.839	0.1625
954.13	0.3351
954.42	0.5084
954.711	0.2185
955.001	0.3751
955.292	0.1303
955.582	0.2998
955.873	0.1479
956.163	0.2856
956.454	0.1349
956.744	0.1784
957.034	0.3941
957.324	0.2104
957.614	0.1375
957.904	0.1446
958.194	0.3944
958.484	0.2673
958.774	0.4
959.064	0.2009
959.353	0.2002
959.643	0.4455
959.933	0.3962
960.222	0.2285
960.512	0.5026
960.801	0.1756
961.091	0.216
961.38	0.3122
961.669	0.3133
961.959	0.1192
962.248	0.2455
962.537	0.2638
962.826	0.2817
963.115	0.4159
963.404	0.2587
963.693	0.2261
963.982	0.4541
964.271	0.3131
964.559	0.1852
964.848	0.0678
965.137	0.1468
965.425	0.2829
965.714	0.1101
966.002	0.3468
966.291	0.272
966.579	0.3671
966.867	0.3285
967.156	0.22
967.444	0.1667
967.732	0.2086
968.02	0.2857
968.308	0.3405
968.596	0.2705
968.884	0.4159
969.172	0.1003
969.459	0.0842
969.747	0.1084
970.035	0.2471
970.322	0.2141
970.61	0.5631
970.898	0.3202
971.185	0.0367
971.472	0.2155
971.76	0.244
972.047	0.1607
972.334	-0.0173
972.621	0.3529
972.909	0.363
973.196	0.0957
973.483	0.2418
973.77	0.2909
974.056	0.4464
974.343	0.297
974.63	0.3904
974.917	0.3154
975.203	0.0648
975.49	0.2308
975.777	0.3145
976.063	0.3157
976.35	0.1996
976.636	0.2738
976.922	0.1792
977.209	0.0761
977.495	0.3028
977.781	0.1219
978.067	0.7392
978.353	0.4013
978.639	0.2197
978.925	0.1495
979.211	0.1509
979.497	0.5153
979.782	0.4907
980.068	0.5212
980.354	0.0618
980.639	0.1997
980.925	0.2341
981.21	0.4295
981.496	0.2221
981.781	0.2563
982.067	0.0134
982.352	0.1776
982.637	0.1346
982.922	0.2993
983.207	0.2115
983.492	-0.0768
983.777	0.2613
984.062	0.2889
984.347	0.0675
984.632	0.4045
984.917	0.1199
985.201	0.165
985.486	0.0211
985.771	0.1279
986.055	0.071
986.34	0.1978
986.624	-0.1197
986.908	1.1361
987.193	0.3992
987.477	0.3433
987.761	0.0344
988.045	0.3223
988.329	0.0185
988.613	0.8762
988.897	-0
989.181	0.1218
989.465	0.1834
989.749	0.2451
990.032	0.2902
990.316	0.1825
990.6	0.8182
990.883	0.3181
991.167	0.3389
991.45	-0.0927
991.734	0.0081
992.017	0.2446
992.3	0.3968
992.583	0.7392
992.867	0.3389
993.15	0.1693
993.433	0.0875
993.716	0.5039
993.999	0.185
994.282	0.1281
994.564	0.2737
994.847	0.1037
995.13	0.3518
995.413	0.3044
995.695	0.2813
995.978	0.0266
996.26	0.3274
996.543	0.4573
996.825	0.1398
997.107	0.056
997.389	-0.2271
997.672	0.3255
997.954	0.3335
998.236	0.4791
998.518	0.3602
998.8	0.0408
999.082	0.7169
999.364	-0
999.645	0.3551
999.927	0.8628
1000.209	0.3863
1000.491	0.1692
1000.772	0.3505
1001.054	0.2631
1001.335	0.0778
1001.616	0.0192
1001.898	-0.1329
1002.179	0.0594
1002.46	1.056
1002.742	0.0512
1003.023	0.3356
1003.304	-0.1571
1003.585	0.333
1003.866	0.2298
1004.147	1.6913
1004.427	-0
1004.708	0.0171
1004.989	-0.1585
1005.269	0.1628
1005.55	-0
1005.831	0.217
1006.111	0.3317
1006.392	-0
1006.672	0.0341
1006.952	-0
1007.232	-0.0285
1007.513	-0
1007.793	-0
1008.073	-0
1008.353	0.5214
1008.633	0.4295
1008.913	1.8002
1009.193	0.4652
1009.472	-0
1009.752	-0.0203
1010.032	1.8002
1010.312	-0
1010.591	-0
1010.871	0.2331
1011.15	-0.0913
1011.429	-0.3059
1011.709	0.1812
1011.988	-0
1012.267	0.0408
1012.547	0.2402
1012.826	0.1538
1013.105	0.1717
1013.384	-0
1013.663	-0.0254
1013.941	-0.0489
1014.22	-0
1014.499	-0
1014.778	0.0013
1015.056	0.104
1015.335	0.0888
1015.614	-0.0724
1015.892	-0.2875
1016.17	-0
1016.449	-0.2299
1016.727	0.4228
1017.005	0.7196
1017.284	0.7196
1017.562	0.7196
