Data from G6_V1_T50_Absorbance_15-59-01-392.txt Node
Date: Mon Sep 09 15:59:01 IST 2024
User: Optics Lab
Spectrometer: FLMS06900
Trigger mode: 0
Integration Time (sec): 6.000000E-3
Scans to average: 1
Electric dark correction enabled: true
Nonlinearity correction enabled: false
Boxcar width: 0
XAxis mode: Wavelengths
Number of Pixels in Spectrum: 2048
>>>>>Begin Spectral Data<<<<<
339.78	-0.2426
340.159	-0.2426
340.537	-0.2426
340.915	-0
341.293	0.1801
341.671	-0.0051
342.049	0.2423
342.427	-1.0664
342.805	-0.1016
343.183	-0.7956
343.561	-0.2825
343.939	-0.3821
344.317	-0.0243
344.694	-0
345.072	-0.3485
345.45	-0
345.827	-0.3993
346.205	-0.2721
346.583	-0
346.96	-1.968
347.338	-0.1416
347.715	0.3261
348.092	-0
348.47	0.2299
348.847	-0
349.224	-0
349.601	0.3969
349.979	0.2756
350.356	0.0531
350.733	-0
351.11	-0
351.487	-0
351.864	-0
352.241	-0
352.618	-0.2095
352.995	-0.7022
353.372	-0.13
353.748	-0
354.125	0.2503
354.502	-0.4442
354.878	-0.0859
355.255	0.1508
355.632	0.1518
356.008	-0.1085
356.385	-0
356.761	-0.2907
357.137	0.2008
357.514	0.1284
357.89	-0.0231
358.266	-0.7255
358.643	0.0026
359.019	0.0653
359.395	-0.9867
359.771	-0
360.147	0.504
360.523	0.0641
360.899	0.0849
361.275	-0.4177
361.651	0.1171
362.027	-0.3122
362.403	-0.3635
362.779	-0
363.155	0.1535
363.53	-0.0438
363.906	0.2207
364.282	-0
364.657	0.6284
365.033	-0.1119
365.408	0.1088
365.784	0.0154
366.159	0.1018
366.535	-0.066
366.91	0.4279
367.285	0.2268
367.66	0.1051
368.036	-0
368.411	0.0212
368.786	0.0482
369.161	0.2185
369.536	-0.1263
369.911	-0.3812
370.286	0.1473
370.661	0.1881
371.036	-0.1603
371.411	-0.5666
371.786	0.035
372.16	0.1306
372.535	-0.96
372.91	-0.2319
373.285	0.6183
373.659	0.1416
374.034	0.0451
374.408	-0.2284
374.783	0.2772
375.157	0.503
375.532	-0.1572
375.906	-1.9243
376.28	-0.158
376.655	-0.0353
377.029	0.0667
377.403	0.1124
377.777	0.1602
378.151	-0.115
378.525	0.3412
378.899	-0.0029
379.273	-0.0564
379.647	0.1421
380.021	-0.1237
380.395	-0.15
380.769	-0.2442
381.143	0.2638
381.517	0.1382
381.89	0.3436
382.264	0.2241
382.638	-0.2453
383.011	0.2067
383.385	0.1122
383.758	-0.0087
384.132	0.1739
384.505	-0.2204
384.878	-0.0455
385.252	0.0244
385.625	0.139
385.998	0.0068
386.372	0.0436
386.745	0.0781
387.118	0.135
387.491	-0.0835
387.864	-0.0051
388.237	0.0845
388.61	0.0513
388.983	0.0149
389.356	0.0285
389.729	0.0329
390.101	0.0828
390.474	0.1289
390.847	0.0154
391.219	0.0594
391.592	-0.0305
391.965	0.0016
392.337	0.1131
392.71	0.0994
393.082	0.0912
393.455	0.1084
393.827	0.0652
394.199	0.0437
394.572	0.065
394.944	0.0602
395.316	0.076
395.688	0.0747
396.06	-0.0127
396.433	-0.1318
396.805	-0.1362
397.177	0.0448
397.549	0.0769
397.92	0.1284
398.292	0.0334
398.664	-0.0362
399.036	0.1754
399.408	0.0063
399.779	0.0113
400.151	0.0166
400.523	0.1012
400.894	0.1108
401.266	0.017
401.637	0.0414
402.009	0.0074
402.38	0.0895
402.752	0.0261
403.123	0.0139
403.494	0.1601
403.866	0.0646
404.237	0.065
404.608	0.0182
404.979	-0.03
405.35	0.0123
405.721	0.071
406.092	-0.0216
406.463	0.0183
406.834	0.0771
407.205	0.0716
407.576	0.0793
407.947	0.0381
408.317	0.0161
408.688	0.041
409.059	0.0366
409.429	0.0171
409.8	-0.0048
410.171	0.0393
410.541	0.0227
410.912	0.0733
411.282	0.0728
411.652	0.0371
412.023	-0.0333
412.393	0.0179
412.763	0.0574
413.133	0.0075
413.504	0.0403
413.874	0.0772
414.244	0.079
414.614	0.0343
414.984	0.0172
415.354	0.049
415.724	0.0788
416.094	0.0474
416.463	0.0791
416.833	0.0189
417.203	-0.0358
417.573	-0.0056
417.942	0.0417
418.312	0.018
418.682	0.0021
419.051	-0.0371
419.421	0.0863
419.79	-0.0271
420.159	-0.0034
420.529	0.063
420.898	0.041
421.267	0.0173
421.637	0.0374
422.006	0.0291
422.375	0.0282
422.744	0.0033
423.113	0.0489
423.482	0.0469
423.851	0.0118
424.22	0.0369
424.589	0.033
424.958	0.0405
425.327	0.0039
425.695	0.0419
426.064	0.0408
426.433	0.0761
426.802	0.0654
427.17	0.0393
427.539	0.032
427.907	0.0358
428.276	0.0136
428.644	0.0383
429.013	0.0209
429.381	0.015
429.749	-0.0226
430.118	0.0488
430.486	0.0551
430.854	0.0021
431.222	0.041
431.59	0.0057
431.958	0.0638
432.326	0.0473
432.694	0.0118
433.062	0.0538
433.43	0.02
433.798	0.0318
434.166	0.0336
434.533	0.0168
434.901	0.0026
435.269	0.0211
435.636	0.0138
436.004	0.0509
436.372	0.0288
436.739	0.0539
437.107	0.0536
437.474	0.0385
437.841	0.0404
438.209	0.0437
438.576	0.018
438.943	0.0095
439.31	0.0201
439.678	0.0416
440.045	0.0103
440.412	0.0378
440.779	0.0413
441.146	0.04
441.513	0.0555
441.88	0.0467
442.247	0.0195
442.613	0.0262
442.98	0.0384
443.347	0.0305
443.714	0.0412
444.08	0.0214
444.447	0.035
444.813	0.01
445.18	0.0492
445.546	0.0178
445.913	0.0322
446.279	0.0378
446.646	0.0045
447.012	0.0269
447.378	0.0538
447.744	0.0588
448.111	0.0306
448.477	0.0104
448.843	0.0449
449.209	0.0512
449.575	0.0397
449.941	0.0432
450.307	0.043
450.673	0.033
451.039	0.0343
451.404	0.0406
451.77	0.0439
452.136	0.0506
452.502	0.0611
452.867	0.0165
453.233	0.0232
453.598	0.0245
453.964	0.0467
454.329	0.0721
454.695	0.0164
455.06	0.0584
455.425	0.0497
455.791	0.0238
456.156	0.0522
456.521	0.0356
456.886	0.0145
457.251	0.0247
457.616	0.0426
457.981	0.0398
458.346	0.0281
458.711	0.0396
459.076	0.048
459.441	0.0476
459.806	0.0604
460.171	0.0354
460.535	0.0473
460.9	0.0472
461.265	0.0343
461.629	0.0482
461.994	0.0146
462.358	0.0331
462.723	0.0398
463.087	0.0685
463.452	0.0539
463.816	0.0498
464.18	0.0311
464.544	0.0576
464.909	0.0413
465.273	0.0326
465.637	0.0338
466.001	0.0419
466.365	0.0402
466.729	0.0559
467.093	0.0414
467.457	0.0459
467.821	0.0613
468.185	0.0431
468.548	0.0532
468.912	0.0555
469.276	0.0496
469.639	0.0366
470.003	0.022
470.367	0.0205
470.73	0.034
471.094	0.039
471.457	0.0519
471.82	0.0506
472.184	0.0482
472.547	0.0506
472.91	0.0407
473.274	0.0378
473.637	0.0456
474	0.0452
474.363	0.0435
474.726	0.0336
475.089	0.0369
475.452	0.0433
475.815	0.0541
476.178	0.0571
476.54	0.0408
476.903	0.0442
477.266	0.0493
477.629	0.0518
477.991	0.0438
478.354	0.0385
478.716	0.05
479.079	0.0553
479.441	0.0558
479.804	0.0519
480.166	0.0561
480.529	0.0602
480.891	0.0409
481.253	0.0546
481.615	0.0413
481.978	0.0427
482.34	0.0552
482.702	0.0457
483.064	0.0428
483.426	0.0474
483.788	0.0434
484.15	0.0491
484.512	0.0421
484.873	0.0428
485.235	0.0405
485.597	0.0455
485.959	0.0547
486.32	0.0385
486.682	0.0512
487.043	0.0431
487.405	0.0471
487.766	0.0416
488.128	0.044
488.489	0.0421
488.85	0.0455
489.212	0.0412
489.573	0.0432
489.934	0.0442
490.295	0.0481
490.657	0.0466
491.018	0.0375
491.379	0.0487
491.74	0.0413
492.101	0.0539
492.461	0.0697
492.822	0.0551
493.183	0.0601
493.544	0.0407
493.905	0.04
494.265	0.0408
494.626	0.0484
494.987	0.0677
495.347	0.0506
495.708	0.0463
496.068	0.044
496.429	0.047
496.789	0.0467
497.149	0.0578
497.509	0.0575
497.87	0.0536
498.23	0.0496
498.59	0.0413
498.95	0.0614
499.31	0.0548
499.67	0.0551
500.03	0.0422
500.39	0.045
500.75	0.0465
501.11	0.0578
501.47	0.0453
501.83	0.0398
502.189	0.0427
502.549	0.0495
502.909	0.0361
503.268	0.0372
503.628	0.0447
503.987	0.0439
504.347	0.0639
504.706	0.0542
505.065	0.0515
505.425	0.0427
505.784	0.0569
506.143	0.0512
506.502	0.0512
506.862	0.053
507.221	0.0493
507.58	0.0437
507.939	0.0495
508.298	0.0449
508.657	0.0431
509.015	0.0472
509.374	0.0557
509.733	0.0617
510.092	0.0457
510.451	0.0496
510.809	0.0544
511.168	0.0561
511.526	0.059
511.885	0.0502
512.243	0.0482
512.602	0.0549
512.96	0.0607
513.319	0.0485
513.677	0.0548
514.035	0.0538
514.393	0.0689
514.751	0.0587
515.11	0.0518
515.468	0.0498
515.826	0.0533
516.184	0.0528
516.542	0.0469
516.9	0.0501
517.257	0.0514
517.615	0.0538
517.973	0.0469
518.331	0.0526
518.688	0.0535
519.046	0.0469
519.404	0.0448
519.761	0.0571
520.119	0.0591
520.476	0.0442
520.834	0.0517
521.191	0.0591
521.548	0.0456
521.906	0.049
522.263	0.0466
522.62	0.0463
522.977	0.0455
523.334	0.047
523.691	0.0583
524.048	0.0504
524.405	0.0586
524.762	0.0547
525.119	0.0629
525.476	0.0609
525.833	0.0528
526.189	0.0573
526.546	0.0516
526.903	0.0545
527.259	0.054
527.616	0.0612
527.973	0.0544
528.329	0.0521
528.685	0.0447
529.042	0.0523
529.398	0.0538
529.755	0.0643
530.111	0.0603
530.467	0.0434
530.823	0.058
531.179	0.0564
531.535	0.0545
531.891	0.0548
532.247	0.0418
532.603	0.06
532.959	0.0666
533.315	0.0546
533.671	0.0565
534.027	0.0529
534.382	0.0686
534.738	0.0565
535.094	0.063
535.449	0.0586
535.805	0.0612
536.16	0.0468
536.516	0.0517
536.871	0.0464
537.226	0.0514
537.582	0.0502
537.937	0.0597
538.292	0.0569
538.647	0.0547
539.003	0.0599
539.358	0.0655
539.713	0.0623
540.068	0.0588
540.423	0.0562
540.778	0.0596
541.132	0.0525
541.487	0.0631
541.842	0.054
542.197	0.042
542.552	0.0485
542.906	0.0489
543.261	0.0402
543.615	0.06
543.97	0.0629
544.324	0.0575
544.679	0.0631
545.033	0.0657
545.387	0.0674
545.742	0.0652
546.096	0.0712
546.45	0.0627
546.804	0.0592
547.158	0.0681
547.512	0.0637
547.866	0.0456
548.22	0.05
548.574	0.064
548.928	0.0561
549.282	0.0515
549.636	0.0663
549.99	0.0539
550.343	0.0645
550.697	0.0682
551.05	0.0635
551.404	0.0643
551.758	0.0601
552.111	0.0562
552.464	0.0586
552.818	0.0545
553.171	0.0608
553.524	0.067
553.878	0.0655
554.231	0.0537
554.584	0.0691
554.937	0.0613
555.29	0.0616
555.643	0.0576
555.996	0.0776
556.349	0.0645
556.702	0.0623
557.055	0.0654
557.408	0.0651
557.76	0.0678
558.113	0.075
558.466	0.0668
558.818	0.0696
559.171	0.0611
559.523	0.0675
559.876	0.066
560.228	0.0664
560.581	0.0738
560.933	0.0655
561.285	0.0698
561.638	0.0599
561.99	0.0709
562.342	0.0594
562.694	0.0595
563.046	0.0751
563.398	0.0731
563.75	0.0719
564.102	0.075
564.454	0.0696
564.806	0.0734
565.158	0.0709
565.509	0.0718
565.861	0.0708
566.213	0.0625
566.564	0.0672
566.916	0.071
567.267	0.067
567.619	0.0686
567.97	0.0765
568.322	0.0738
568.673	0.0669
569.024	0.0683
569.376	0.0742
569.727	0.0688
570.078	0.067
570.429	0.067
570.78	0.0696
571.131	0.0744
571.482	0.0743
571.833	0.0747
572.184	0.0689
572.535	0.0781
572.885	0.0709
573.236	0.0721
573.587	0.0782
573.938	0.0784
574.288	0.0741
574.639	0.0734
574.989	0.0711
575.34	0.0777
575.69	0.0802
576.04	0.0651
576.391	0.0664
576.741	0.0724
577.091	0.08
577.442	0.083
577.792	0.0741
578.142	0.078
578.492	0.0755
578.842	0.0781
579.192	0.0781
579.542	0.0814
579.892	0.0752
580.241	0.0778
580.591	0.0849
580.941	0.0744
581.291	0.0922
581.64	0.089
581.99	0.081
582.339	0.0773
582.689	0.0764
583.038	0.0838
583.388	0.0855
583.737	0.0794
584.086	0.081
584.436	0.0689
584.785	0.0865
585.134	0.0814
585.483	0.0804
585.832	0.0797
586.181	0.0765
586.53	0.0851
586.879	0.0777
587.228	0.0846
587.577	0.0909
587.926	0.0785
588.275	0.0855
588.623	0.0846
588.972	0.0864
589.321	0.0941
589.669	0.0919
590.018	0.0904
590.366	0.0793
590.715	0.0925
591.063	0.0852
591.412	0.0859
591.76	0.0895
592.108	0.0936
592.456	0.0916
592.805	0.0952
593.153	0.091
593.501	0.0808
593.849	0.0765
594.197	0.0924
594.545	0.0911
594.893	0.0958
595.24	0.0922
595.588	0.0936
595.936	0.1054
596.284	0.0971
596.631	0.0933
596.979	0.0986
597.327	0.1002
597.674	0.1053
598.022	0.0978
598.369	0.1009
598.716	0.0967
599.064	0.0903
599.411	0.0957
599.758	0.1037
600.105	0.0954
600.453	0.0993
600.8	0.1064
601.147	0.1019
601.494	0.0975
601.841	0.0915
602.188	0.0927
602.535	0.1066
602.881	0.1005
603.228	0.1003
603.575	0.0912
603.922	0.098
604.268	0.0982
604.615	0.1014
604.961	0.1015
605.308	0.1071
605.654	0.1112
606.001	0.1042
606.347	0.1097
606.693	0.101
607.04	0.1035
607.386	0.1034
607.732	0.11
608.078	0.1114
608.424	0.1044
608.77	0.1027
609.116	0.1105
609.462	0.098
609.808	0.1089
610.154	0.1152
610.5	0.1046
610.846	0.1107
611.191	0.1005
611.537	0.1138
611.883	0.1156
612.228	0.1128
612.574	0.1101
612.919	0.1134
613.265	0.1123
613.61	0.1132
613.955	0.1176
614.301	0.1159
614.646	0.109
614.991	0.1101
615.336	0.1176
615.681	0.1129
616.026	0.1134
616.371	0.1187
616.716	0.108
617.061	0.1107
617.406	0.1152
617.751	0.117
618.096	0.1171
618.44	0.1122
618.785	0.1083
619.13	0.1097
619.474	0.1131
619.819	0.1061
620.163	0.1168
620.508	0.112
620.852	0.1183
621.197	0.1175
621.541	0.1213
621.885	0.1126
622.229	0.1149
622.574	0.1167
622.918	0.1203
623.262	0.1146
623.606	0.1145
623.95	0.1249
624.294	0.1163
624.638	0.117
624.981	0.1143
625.325	0.1192
625.669	0.1269
626.013	0.1198
626.356	0.1205
626.7	0.1195
627.043	0.1179
627.387	0.1204
627.73	0.121
628.074	0.1153
628.417	0.1147
628.761	0.1178
629.104	0.1124
629.447	0.1195
629.79	0.1177
630.133	0.1232
630.476	0.1286
630.819	0.1266
631.162	0.1254
631.505	0.1308
631.848	0.1183
632.191	0.1156
632.534	0.1245
632.877	0.1239
633.219	0.1266
633.562	0.1231
633.905	0.1237
634.247	0.1241
634.59	0.1247
634.932	0.1241
635.275	0.12
635.617	0.1148
635.959	0.115
636.302	0.1132
636.644	0.1232
636.986	0.1288
637.328	0.1259
637.67	0.1228
638.012	0.1344
638.354	0.1308
638.696	0.133
639.038	0.132
639.38	0.14
639.722	0.1246
640.064	0.1417
640.405	0.1291
640.747	0.136
641.089	0.1321
641.43	0.1272
641.772	0.1349
642.113	0.1345
642.455	0.13
642.796	0.1263
643.137	0.126
643.479	0.1311
643.82	0.1301
644.161	0.1293
644.502	0.1384
644.843	0.1454
645.185	0.1306
645.526	0.1455
645.866	0.1378
646.207	0.1418
646.548	0.1394
646.889	0.1516
647.23	0.1464
647.571	0.1506
647.911	0.1494
648.252	0.1352
648.592	0.1443
648.933	0.1461
649.273	0.1409
649.614	0.1486
649.954	0.1482
650.295	0.1469
650.635	0.1517
650.975	0.1592
651.315	0.1494
651.656	0.1516
651.996	0.1573
652.336	0.1438
652.676	0.1518
653.016	0.1475
653.356	0.1596
653.695	0.1605
654.035	0.1496
654.375	0.1446
654.715	0.1619
655.054	0.1601
655.394	0.1672
655.734	0.1722
656.073	0.1577
656.413	0.1755
656.752	0.1698
657.091	0.1582
657.431	0.1774
657.77	0.1718
658.109	0.1716
658.449	0.1554
658.788	0.1682
659.127	0.1576
659.466	0.1665
659.805	0.169
660.144	0.1671
660.483	0.1721
660.822	0.1741
661.16	0.1628
661.499	0.1762
661.838	0.1727
662.177	0.1792
662.515	0.1898
662.854	0.1688
663.192	0.177
663.531	0.1623
663.869	0.17
664.208	0.1708
664.546	0.1746
664.884	0.1648
665.222	0.1759
665.561	0.1761
665.899	0.1651
666.237	0.1703
666.575	0.1839
666.913	0.1828
667.251	0.1786
667.589	0.1835
667.927	0.1736
668.264	0.1741
668.602	0.1754
668.94	0.164
669.278	0.1772
669.615	0.1628
669.953	0.1647
670.29	0.1592
670.628	0.1697
670.965	0.1666
671.303	0.1553
671.64	0.1603
671.977	0.1696
672.314	0.1811
672.652	0.1755
672.989	0.1765
673.326	0.1704
673.663	0.166
674	0.1649
674.337	0.1671
674.674	0.1746
675.01	0.1661
675.347	0.1551
675.684	0.1513
676.021	0.1452
676.357	0.1393
676.694	0.1479
677.031	0.1309
677.367	0.1346
677.704	0.1418
678.04	0.1397
678.376	0.1296
678.713	0.134
679.049	0.1412
679.385	0.1415
679.721	0.1357
680.057	0.1431
680.393	0.1457
680.73	0.1292
681.065	0.1405
681.401	0.143
681.737	0.1415
682.073	0.1342
682.409	0.1233
682.745	0.1307
683.08	0.1221
683.416	0.1293
683.752	0.123
684.087	0.1165
684.423	0.119
684.758	0.1131
685.093	0.1148
685.429	0.1207
685.764	0.1037
686.099	0.1148
686.435	0.1152
686.77	0.1101
687.105	0.1031
687.44	0.1046
687.775	0.1112
688.11	0.1075
688.445	0.1019
688.78	0.11
689.114	0.1081
689.449	0.1034
689.784	0.0977
690.119	0.0974
690.453	0.1046
690.788	0.0933
691.122	0.0962
691.457	0.1014
691.791	0.0886
692.126	0.0853
692.46	0.0896
692.794	0.0845
693.128	0.0797
693.463	0.0867
693.797	0.0816
694.131	0.0912
694.465	0.0786
694.799	0.0915
695.133	0.0921
695.467	0.0857
695.801	0.1007
696.134	0.1006
696.468	0.0908
696.802	0.0821
697.135	0.0872
697.469	0.0898
697.803	0.0859
698.136	0.0806
698.47	0.0851
698.803	0.0763
699.136	0.0726
699.47	0.0759
699.803	0.0759
700.136	0.0729
700.469	0.0699
700.802	0.0738
701.135	0.0828
701.468	0.0842
701.801	0.066
702.134	0.0781
702.467	0.0861
702.8	0.0776
703.133	0.0813
703.465	0.0778
703.798	0.0717
704.131	0.0748
704.463	0.0662
704.796	0.0823
705.128	0.0824
705.461	0.0862
705.793	0.0727
706.125	0.0704
706.458	0.0661
706.79	0.0722
707.122	0.0785
707.454	0.077
707.786	0.0751
708.118	0.0752
708.45	0.0799
708.782	0.0659
709.114	0.0703
709.446	0.0757
709.778	0.0786
710.11	0.0823
710.441	0.0846
710.773	0.0755
711.104	0.077
711.436	0.0785
711.768	0.0738
712.099	0.0781
712.43	0.0751
712.762	0.0742
713.093	0.0686
713.424	0.0709
713.755	0.0752
714.087	0.0655
714.418	0.0712
714.749	0.0699
715.08	0.0784
715.411	0.0719
715.742	0.072
716.072	0.0782
716.403	0.0867
716.734	0.0856
717.065	0.0867
717.395	0.0747
717.726	0.0685
718.057	0.0625
718.387	0.0681
718.718	0.0676
719.048	0.0839
719.378	0.0744
719.709	0.0785
720.039	0.0795
720.369	0.0676
720.699	0.0715
721.029	0.0695
721.359	0.0682
721.689	0.0788
722.019	0.0662
722.349	0.0742
722.679	0.071
723.009	0.0734
723.339	0.0731
723.669	0.0793
723.998	0.0765
724.328	0.0811
724.657	0.0725
724.987	0.0708
725.316	0.0801
725.646	0.0777
725.975	0.087
726.305	0.086
726.634	0.0749
726.963	0.0731
727.292	0.0658
727.621	0.0729
727.95	0.0768
728.279	0.0629
728.608	0.0814
728.937	0.0741
729.266	0.0776
729.595	0.0808
729.924	0.0798
730.253	0.0732
730.581	0.0663
730.91	0.0542
731.238	0.0645
731.567	0.0645
731.896	0.0774
732.224	0.0662
732.552	0.0714
732.881	0.0709
733.209	0.0772
733.537	0.0744
733.865	0.0728
734.194	0.0687
734.522	0.0753
734.85	0.0734
735.178	0.0774
735.506	0.051
735.833	0.0677
736.161	0.0811
736.489	0.0799
736.817	0.0766
737.144	0.0847
737.472	0.0733
737.8	0.078
738.127	0.073
738.455	0.0761
738.782	0.0809
739.11	0.0772
739.437	0.0727
739.764	0.0772
740.091	0.0644
740.419	0.0748
740.746	0.0718
741.073	0.0739
741.4	0.0812
741.727	0.0737
742.054	0.066
742.381	0.0654
742.708	0.0614
743.034	0.0737
743.361	0.0755
743.688	0.0774
744.014	0.084
744.341	0.081
744.668	0.0681
744.994	0.0719
745.321	0.0735
745.647	0.0706
745.973	0.0842
746.3	0.0809
746.626	0.0693
746.952	0.069
747.278	0.0746
747.604	0.0788
747.93	0.0789
748.256	0.076
748.582	0.0794
748.908	0.0687
749.234	0.0675
749.56	0.0787
749.885	0.0661
750.211	0.0837
750.537	0.0795
750.862	0.0854
751.188	0.0776
751.513	0.0841
751.839	0.0717
752.164	0.0766
752.49	0.0655
752.815	0.0756
753.14	0.0666
753.465	0.0681
753.79	0.0723
754.116	0.0735
754.441	0.0642
754.766	0.0618
755.091	0.0768
755.415	0.0653
755.74	0.0578
756.065	0.0756
756.39	0.0815
756.714	0.0879
757.039	0.085
757.364	0.081
757.688	0.0769
758.013	0.0777
758.337	0.0762
758.662	0.0784
758.986	0.0851
759.31	0.093
759.634	0.0787
759.959	0.0772
760.283	0.08
760.607	0.0752
760.931	0.0776
761.255	0.073
761.579	0.0627
761.903	0.0665
762.226	0.0695
762.55	0.0757
762.874	0.0662
763.198	0.065
763.521	0.0696
763.845	0.0801
764.168	0.0768
764.492	0.0774
764.815	0.082
765.139	0.0849
765.462	0.0789
765.785	0.0779
766.109	0.072
766.432	0.0782
766.755	0.0785
767.078	0.0776
767.401	0.0689
767.724	0.0805
768.047	0.0723
768.37	0.0812
768.693	0.0747
769.015	0.0765
769.338	0.088
769.661	0.0845
769.983	0.0797
770.306	0.0871
770.628	0.0691
770.951	0.0654
771.273	0.0589
771.596	0.0714
771.918	0.0671
772.24	0.0757
772.562	0.0684
772.885	0.0789
773.207	0.0638
773.529	0.0751
773.851	0.0609
774.173	0.072
774.495	0.078
774.817	0.0866
775.138	0.0808
775.46	0.0941
775.782	0.0849
776.103	0.0839
776.425	0.0811
776.747	0.0794
777.068	0.0824
777.39	0.081
777.711	0.0763
778.032	0.0684
778.354	0.0745
778.675	0.0801
778.996	0.0682
779.317	0.0687
779.638	0.0623
779.959	0.0803
780.28	0.0658
780.601	0.0662
780.922	0.0656
781.243	0.0783
781.564	0.0655
781.885	0.0704
782.205	0.0735
782.526	0.0538
782.847	0.0687
783.167	0.0668
783.488	0.0702
783.808	0.0703
784.128	0.0685
784.449	0.0653
784.769	0.06
785.089	0.0601
785.409	0.065
785.73	0.0808
786.05	0.0753
786.37	0.0739
786.69	0.0746
787.01	0.0808
787.329	0.0892
787.649	0.0769
787.969	0.0649
788.289	0.0694
788.608	0.0787
788.928	0.0695
789.248	0.0797
789.567	0.0829
789.887	0.0691
790.206	0.0706
790.525	0.0711
790.845	0.0722
791.164	0.0704
791.483	0.0672
791.802	0.078
792.121	0.0763
792.44	0.0713
792.76	0.0768
793.078	0.078
793.397	0.0861
793.716	0.0748
794.035	0.0782
794.354	0.0729
794.672	0.0697
794.991	0.0805
795.31	0.0768
795.628	0.0745
795.947	0.0786
796.265	0.0785
796.584	0.0744
796.902	0.07
797.22	0.0668
797.538	0.0779
797.857	0.0803
798.175	0.0581
798.493	0.0769
798.811	0.0775
799.129	0.0795
799.447	0.0955
799.765	0.0953
800.083	0.0901
800.4	0.0839
800.718	0.0862
801.036	0.0811
801.353	0.0823
801.671	0.0823
801.988	0.071
802.306	0.0703
802.623	0.0694
802.941	0.0725
803.258	0.0699
803.575	0.073
803.892	0.0603
804.21	0.0586
804.527	0.058
804.844	0.0624
805.161	0.0544
805.478	0.0519
805.795	0.0592
806.111	0.0559
806.428	0.0662
806.745	0.0732
807.062	0.1008
807.378	0.0757
807.695	0.0794
808.011	0.0909
808.328	0.0896
808.644	0.0861
808.961	0.0826
809.277	0.0857
809.593	0.0922
809.91	0.0864
810.226	0.0864
810.542	0.0891
810.858	0.0722
811.174	0.0634
811.49	0.0667
811.806	0.078
812.122	0.0722
812.438	0.0685
812.753	0.0682
813.069	0.0606
813.385	0.0494
813.7	0.0517
814.016	0.0456
814.331	0.0501
814.647	0.0616
814.962	0.0518
815.278	0.0613
815.593	0.0791
815.908	0.0786
816.223	0.0715
816.538	0.0861
816.854	0.0711
817.169	0.0732
817.484	0.0767
817.799	0.0868
818.113	0.0927
818.428	0.1076
818.743	0.1041
819.058	0.0928
819.372	0.0669
819.687	0.0649
820.002	0.0726
820.316	0.062
820.631	0.0739
820.945	0.0818
821.259	0.0736
821.574	0.0765
821.888	0.0699
822.202	0.0633
822.516	0.0685
822.83	0.0653
823.145	0.0666
823.459	0.0732
823.772	0.0815
824.086	0.0774
824.4	0.0662
824.714	0.078
825.028	0.0534
825.341	0.0608
825.655	0.0725
825.969	0.0702
826.282	0.0803
826.596	0.0892
826.909	0.0788
827.222	0.0772
827.536	0.0688
827.849	0.065
828.162	0.0519
828.475	0.0733
828.789	0.074
829.102	0.08
829.415	0.0863
829.728	0.0703
830.041	0.0797
830.353	0.0557
830.666	0.0747
830.979	0.0841
831.292	0.0917
831.604	0.0828
831.917	0.0951
832.229	0.0714
832.542	0.0739
832.854	0.0819
833.167	0.0946
833.479	0.0724
833.791	0.0657
834.104	0.0569
834.416	0.075
834.728	0.0796
835.04	0.0947
835.352	0.0814
835.664	0.0672
835.976	0.0737
836.288	0.0927
836.599	0.0843
836.911	0.0802
837.223	0.0886
837.535	0.0877
837.846	0.0928
838.158	0.0886
838.469	0.1056
838.781	0.1053
839.092	0.0665
839.403	0.0868
839.715	0.0622
840.026	0.0877
840.337	0.0804
840.648	0.0777
840.959	0.0762
841.27	0.0802
841.581	0.0778
841.892	0.0691
842.203	0.0572
842.514	0.0574
842.825	0.0808
843.135	0.0791
843.446	0.0883
843.757	0.084
844.067	0.0719
844.378	0.0712
844.688	0.0439
844.999	0.0821
845.309	0.0661
845.619	0.0724
845.929	0.082
846.24	0.0801
846.55	0.0875
846.86	0.0961
847.17	0.068
847.48	0.0797
847.79	0.0705
848.1	0.0844
848.409	0.0763
848.719	0.0858
849.029	0.0598
849.338	0.0642
849.648	0.0834
849.958	0.0681
850.267	0.0833
850.577	0.0816
850.886	0.1107
851.195	0.0832
851.505	0.0745
851.814	0.0884
852.123	0.0895
852.432	0.0797
852.741	0.0677
853.05	0.0974
853.359	0.1067
853.668	0.0954
853.977	0.0881
854.286	0.1007
854.595	0.0643
854.903	0.0877
855.212	0.0599
855.521	0.0651
855.829	0.0932
856.138	0.0815
856.446	0.0763
856.754	0.0858
857.063	0.0809
857.371	0.0702
857.679	0.0889
857.987	0.0856
858.296	0.0821
858.604	0.0682
858.912	0.0747
859.22	0.07
859.527	0.0677
859.835	0.073
860.143	0.0913
860.451	0.073
860.759	0.0665
861.066	0.0751
861.374	0.0599
861.681	0.0909
861.989	0.0832
862.296	0.0826
862.604	0.0921
862.911	0.0964
863.218	0.083
863.526	0.0864
863.833	0.073
864.14	0.0609
864.447	0.0848
864.754	0.0859
865.061	0.0868
865.368	0.0794
865.675	0.0775
865.981	0.0594
866.288	0.0694
866.595	0.0735
866.901	0.0711
867.208	0.0949
867.515	0.0665
867.821	0.0645
868.127	0.0875
868.434	0.0713
868.74	0.0667
869.046	0.0866
869.353	0.0678
869.659	0.0827
869.965	0.0837
870.271	0.0851
870.577	0.0633
870.883	0.0713
871.189	0.0847
871.495	0.0824
871.8	0.12
872.106	0.065
872.412	0.0861
872.717	0.0701
873.023	0.0729
873.329	0.0622
873.634	0.0852
873.939	0.0742
874.245	0.1304
874.55	0.0776
874.855	0.0803
875.161	0.058
875.466	0.0589
875.771	0.0847
876.076	0.0767
876.381	0.0916
876.686	0.0703
876.991	0.0728
877.295	0.0767
877.6	0.0784
877.905	0.0866
878.21	0.0806
878.514	0.0775
878.819	0.0799
879.123	0.0569
879.428	0.0535
879.732	0.0705
880.036	0.0777
880.341	0.0734
880.645	0.0901
880.949	0.1015
881.253	0.0804
881.557	0.0794
881.861	0.0959
882.165	0.0622
882.469	0.0624
882.773	0.0523
883.077	0.0701
883.381	0.0851
883.684	0.1106
883.988	0.0929
884.292	0.0868
884.595	0.0708
884.899	0.1013
885.202	0.0967
885.505	0.0696
885.809	0.0763
886.112	0.0488
886.415	0.0543
886.718	0.0805
887.022	0.0774
887.325	0.0831
887.628	0.0818
887.931	0.0638
888.233	0.0538
888.536	0.1168
888.839	0.0875
889.142	0.0276
889.444	0.0848
889.747	0.0646
890.05	0.0394
890.352	0.0646
890.655	0.0751
890.957	0.0769
891.259	0.0485
891.562	0.057
891.864	0.0681
892.166	0.0638
892.468	0.0682
892.77	0.0806
893.072	0.0749
893.374	0.0609
893.676	0.0611
893.978	0.0965
894.28	0.0815
894.582	0.0816
894.883	0.0962
895.185	0.0645
895.487	0.0713
895.788	0.0741
896.09	0.0649
896.391	0.0836
896.693	0.0995
896.994	0.0794
897.295	0.0655
897.596	0.0674
897.898	0.0682
898.199	0.0925
898.5	0.1034
898.801	0.1129
899.102	0.1326
899.403	0.0834
899.703	0.0727
900.004	0.0692
900.305	0.0691
900.606	0.0891
900.906	0.0502
901.207	0.0655
901.507	0.0905
901.808	0.0999
902.108	0.0614
902.409	0.0479
902.709	0.09
903.009	0.0644
903.309	0.0768
903.61	0.07
903.91	0.0275
904.21	0.0722
904.51	0.0543
904.81	0.0462
905.109	0.0659
905.409	0.0965
905.709	0.0995
906.009	0.0938
906.308	0.0762
906.608	0.0817
906.907	0.0884
907.207	0.0517
907.506	0.0706
907.806	0.0748
908.105	0.0727
908.404	0.1063
908.704	0.1212
909.003	0.0671
909.302	0.0931
909.601	0.0757
909.9	0.0406
910.199	0.0716
910.498	0.0674
910.797	0.0884
911.095	0.0797
911.394	0.0909
911.693	0.0949
911.991	0.0819
912.29	0.0579
912.589	0.0656
912.887	0.0905
913.185	0.0633
913.484	0.0476
913.782	0.0631
914.08	0.0756
914.378	0.0865
914.677	0.0761
914.975	0.047
915.273	0.0731
915.571	0.0795
915.869	0.0622
916.166	0.0769
916.464	0.0786
916.762	0.068
917.06	0.0446
917.357	0.0841
917.655	0.0874
917.952	0.0787
918.25	0.0815
918.547	0.0694
918.845	0.0879
919.142	0.1123
919.439	0.1107
919.736	0.0641
920.034	0.0841
920.331	0.0712
920.628	0.0865
920.925	0.0752
921.222	0.0619
921.518	0.0827
921.815	0.0437
922.112	0.1039
922.409	0.0961
922.705	0.098
923.002	0.0743
923.299	0.0762
923.595	0.0781
923.891	0.0811
924.188	0.0628
924.484	0.0867
924.78	0.1013
925.077	0.101
925.373	0.0565
925.669	0.1008
925.965	0.0505
926.261	0.0807
926.557	0.0676
926.853	0.036
927.149	0.0797
927.444	0.0677
927.74	0.0602
928.036	0.0935
928.331	0.0671
928.627	0.0225
928.923	0.0905
929.218	0.0699
929.513	0.0768
929.809	0.0996
930.104	0.0852
930.399	0.0383
930.694	0.066
930.99	0.0545
931.285	0.0548
931.58	0.0257
931.875	0.0824
932.169	0.0597
932.464	0.0663
932.759	0.1013
933.054	0.0785
933.348	0.1017
933.643	0.096
933.938	0.0912
934.232	0.0755
934.527	0.0569
934.821	0.0475
935.115	0.0715
935.41	0.0751
935.704	0.0977
935.998	0.1517
936.292	0.0963
936.586	0.0765
936.88	0.0845
937.174	0.0654
937.468	0.0873
937.762	0.1273
938.056	0.05
938.35	0.0692
938.643	0.181
938.937	0.0699
939.23	0.0556
939.524	0.043
939.817	0.0371
940.111	0.1359
940.404	0.1023
940.698	0.0883
940.991	0.0631
941.284	0.1248
941.577	0.0008
941.87	0.0028
942.163	0.1093
942.456	0.0234
942.749	0.0297
943.042	0.0832
943.335	0.0352
943.628	0.0826
943.92	0.1353
944.213	-0.0634
944.505	0.0828
944.798	0.1346
945.09	0.0777
945.383	0.322
945.675	0.1679
945.967	0.0697
946.26	0.1184
946.552	0.1767
946.844	0.1021
947.136	0.0141
947.428	0.2873
947.72	0.1721
948.012	0.1455
948.304	0.0074
948.596	0.2251
948.887	0.0044
949.179	0.2129
949.471	0.1118
949.762	0.0012
950.054	-0.0542
950.345	0.156
950.637	0.1836
950.928	-0.0254
951.219	0.1071
951.511	0.045
951.802	-0.1313
952.093	0.109
952.384	0.1024
952.675	-0.0025
952.966	0.1483
953.257	-0.0188
953.548	0.2203
953.839	0.0825
954.13	0.2201
954.42	0.1701
954.711	0.0626
955.001	0.241
955.292	-0.0594
955.582	-0.0161
955.873	-0.0196
956.163	0.154
956.454	-0.0157
956.744	0.0453
957.034	-0.0714
957.324	0.1095
957.614	0.0206
957.904	0.1538
958.194	0.0384
958.484	0.023
958.774	0.2116
959.064	-0.0629
959.353	0.0521
959.643	0.113
959.933	0.4592
960.222	-0.0235
960.512	0.0818
960.801	-0.0149
961.091	0.0617
961.38	0.001
961.669	0.204
961.959	0.0716
962.248	-0.0336
962.537	-0.0743
962.826	0.2303
963.115	-0.0097
963.404	0.0745
963.693	0.1118
963.982	0.2482
964.271	0.1722
964.559	0.056
964.848	-0.0019
965.137	0.2089
965.425	0.0114
965.714	-0.1211
966.002	0.1848
966.291	0.1247
966.579	0.0887
966.867	0.1351
967.156	0.037
967.444	0.0267
967.732	0.105
968.02	0.0658
968.308	0.1938
968.596	0.174
968.884	0.2091
969.172	-0.0133
969.459	0.0662
969.747	0.0463
970.035	0.0844
970.322	0.2369
970.61	-0.0667
970.898	-0.0149
971.185	-0.1394
971.472	0.1929
971.76	0.1765
972.047	-0.0757
972.334	-0.0621
972.621	-0.0268
972.909	0.1247
973.196	0.0362
973.483	-0.0381
973.77	0.0618
974.056	0.1487
974.343	0.1615
974.63	0.16
974.917	0.1238
975.203	-0.0581
975.49	0.2322
975.777	0.0362
976.063	0.0074
976.35	0.0203
976.636	0.1851
976.922	0.0012
977.209	0.0992
977.495	0.1001
977.781	0.0693
978.067	-0.2023
978.353	0.1096
978.639	0.0952
978.925	0.0513
979.211	-0.1187
979.497	0.263
979.782	0.1784
980.068	0.0802
980.354	-0.0064
980.639	0.3772
980.925	0.023
981.21	-0.0179
981.496	-0.0071
981.781	-0.049
982.067	0.2601
982.352	0.1323
982.637	-0.0196
982.922	-0.0791
983.207	-0.0194
983.492	0.0066
983.777	0.1244
984.062	0.0232
984.347	-0.0058
984.632	0.1482
984.917	0.2903
985.201	0.1821
985.486	-0.1052
985.771	0.1226
986.055	0.1999
986.34	0.0287
986.624	-0.0882
986.908	0.1533
987.193	0.0674
987.477	0.175
987.761	0.1974
988.045	0.189
988.329	-0.0775
988.613	0.3831
988.897	0.138
989.181	0.213
989.465	-0.0092
989.749	0.0981
990.032	0.2499
990.316	-0.108
990.6	0.1259
990.883	0.0034
991.167	0.0747
991.45	-0.158
991.734	-0.2048
992.017	-0.181
992.3	-0.0485
992.583	-0.0574
992.867	-0.0354
993.15	-0.079
993.433	-0.0435
993.716	0.1694
993.999	0.0214
994.282	0.0187
994.564	-0.0036
994.847	0.0614
995.13	0.6284
995.413	0.2015
995.695	-0.1616
995.978	-0.1089
996.26	0.0031
996.543	-0.1076
996.825	-0.073
997.107	-0.0789
997.389	0.1559
997.672	0.0894
997.954	-0.0083
998.236	-0.6822
998.518	0.0472
998.8	0.0356
999.082	0.1859
999.364	-0.4147
999.645	0.6878
999.927	0.1916
1000.209	0.2066
1000.491	-0.0097
1000.772	0.1136
1001.054	0.4085
1001.335	-0.0323
1001.616	0.2365
1001.898	-0.0495
1002.179	0.1032
1002.46	0.5595
1002.742	-0.0706
1003.023	0.0172
1003.304	-0.2515
1003.585	0.4228
1003.866	-0.1973
1004.147	-0.1183
1004.427	-0.3287
1004.708	-0.1068
1004.989	-0.381
1005.269	0.0438
1005.55	-0.0785
1005.831	0.0025
1006.111	0.3135
1006.392	-0
1006.672	0.4859
1006.952	0.024
1007.232	1.2404
1007.513	-0
1007.793	-0
1008.073	-0.61
1008.353	0.779
1008.633	-0.0404
1008.913	0.0638
1009.193	-0.1485
1009.472	0.2084
1009.752	-0
1010.032	0.2624
1010.312	-0
1010.591	-0
1010.871	-0.0231
1011.15	0.7469
1011.429	-0
1011.709	0.7041
1011.988	1.5472
1012.267	0.1462
1012.547	-0.5412
1012.826	-0
1013.105	-0.4149
1013.384	-0.8861
1013.663	-0.4914
1013.941	-0.0296
1014.22	0.5485
1014.499	0.0269
1014.778	-0.1173
1015.056	0.0464
1015.335	-0
1015.614	0.3002
1015.892	-0.0565
1016.17	-0
1016.449	-0.2366
1016.727	0.2038
1017.005	0.1404
1017.284	0.1404
1017.562	0.1404
