Data from G6_V2_T30_Absorbance_15-31-06-256.txt Node
Date: Mon Sep 09 15:31:06 IST 2024
User: Optics Lab
Spectrometer: FLMS06900
Trigger mode: 0
Integration Time (sec): 6.000000E-3
Scans to average: 1
Electric dark correction enabled: true
Nonlinearity correction enabled: false
Boxcar width: 0
XAxis mode: Wavelengths
Number of Pixels in Spectrum: 2048
>>>>>Begin Spectral Data<<<<<
339.78	-0.4284
340.159	-0.4284
340.537	-0.4284
340.915	-0
341.293	0.2021
341.671	-0
342.049	0.441
342.427	-0.7246
342.805	0.2037
343.183	-0.5408
343.561	-0.0358
343.939	-0.4338
344.317	-0
344.694	-0.7782
345.072	-0.1339
345.45	-0
345.827	-0.0042
346.205	-0.347
346.583	-0
346.96	-1.7324
347.338	0.4523
347.715	0.0701
348.092	-0
348.47	-0.2053
348.847	-0
349.224	-0.1637
349.601	-0
349.979	-0.4452
350.356	0.1971
350.733	-0.112
351.11	-0.2737
351.487	0.2984
351.864	-0
352.241	-1.4898
352.618	-0.5257
352.995	-0.3743
353.372	-0.4442
353.748	-0
354.125	-0.4512
354.502	-0
354.878	-0
355.255	0.1332
355.632	0.2119
356.008	-0.0147
356.385	-0.7064
356.761	-0.505
357.137	0.6174
357.514	0.0811
357.89	-0
358.266	-0
358.643	0.7047
359.019	-0
359.395	-0
359.771	0.6213
360.147	-0
360.523	-0
360.899	0.2868
361.275	-0.2242
361.651	0.3953
362.027	-0.1037
362.403	-0
362.779	-0
363.155	-0
363.53	0.9985
363.906	0.2395
364.282	-0.1013
364.657	-0
365.033	0.2566
365.408	-0.0288
365.784	0.2657
366.159	0.4348
366.535	-0
366.91	-0.1031
367.285	0.0682
367.66	0.1297
368.036	-1.3854
368.411	0.2051
368.786	0.1122
369.161	0.5833
369.536	0.5522
369.911	-0.2083
370.286	-0.4671
370.661	0.5128
371.036	-0.0159
371.411	-0
371.786	0.1379
372.16	0.1862
372.535	-0
372.91	-0.1213
373.285	-0
373.659	0.3805
374.034	0.0885
374.408	0.25
374.783	0.1687
375.157	-0
375.532	0.1869
375.906	-1.2218
376.28	0.3464
376.655	-0.0364
377.029	0.4745
377.403	0.8387
377.777	0.1121
378.151	0.0499
378.525	0.4149
378.899	0.0805
379.273	0.0355
379.647	0.6578
380.021	0.262
380.395	0.1952
380.769	0.1573
381.143	-0
381.517	0.1842
381.89	0.4103
382.264	0.5291
382.638	-0.0994
383.011	0.4024
383.385	0.7986
383.758	0.0506
384.132	0.5751
384.505	-0.0185
384.878	-0
385.252	0.3274
385.625	1.3993
385.998	0.6399
386.372	-0
386.745	0.1967
387.118	1.1951
387.491	0.1063
387.864	0.1949
388.237	0.313
388.61	0.3773
388.983	0.737
389.356	0.4725
389.729	0.3005
390.101	0.4144
390.474	0.5112
390.847	0.4988
391.219	0.4007
391.592	0.2004
391.965	0.6181
392.337	0.3999
392.71	0.3238
393.082	0.7945
393.455	0.3785
393.827	0.3818
394.199	0.3296
394.572	0.3218
394.944	0.2603
395.316	0.5027
395.688	0.3694
396.06	0.2442
396.433	0.0686
396.805	0.247
397.177	0.6264
397.549	0.3148
397.92	0.4105
398.292	0.1827
398.664	0.123
399.036	0.485
399.408	0.267
399.779	0.1933
400.151	0.4416
400.523	0.5556
400.894	0.5507
401.266	0.4576
401.637	0.4445
402.009	0.379
402.38	0.4608
402.752	0.2539
403.123	0.39
403.494	0.5783
403.866	0.6361
404.237	0.4105
404.608	0.3633
404.979	0.2985
405.35	0.3883
405.721	0.401
406.092	0.3177
406.463	0.4625
406.834	0.3839
407.205	0.3062
407.576	0.349
407.947	0.2401
408.317	0.2625
408.688	0.3525
409.059	0.4076
409.429	0.4828
409.8	0.3813
410.171	0.4363
410.541	0.3258
410.912	0.4753
411.282	0.3619
411.652	0.3434
412.023	0.3688
412.393	0.3684
412.763	0.3954
413.133	0.3629
413.504	0.2988
413.874	0.3647
414.244	0.3843
414.614	0.3647
414.984	0.3788
415.354	0.3985
415.724	0.4232
416.094	0.4124
416.463	0.3239
416.833	0.3453
417.203	0.3295
417.573	0.384
417.942	0.2942
418.312	0.3464
418.682	0.2573
419.051	0.2947
419.421	0.3365
419.79	0.3368
420.159	0.3278
420.529	0.3773
420.898	0.3922
421.267	0.3984
421.637	0.4275
422.006	0.4094
422.375	0.4512
422.744	0.4287
423.113	0.2895
423.482	0.3683
423.851	0.3533
424.22	0.3215
424.589	0.3115
424.958	0.3309
425.327	0.3295
425.695	0.322
426.064	0.336
426.433	0.3295
426.802	0.3527
427.17	0.3855
427.539	0.3827
427.907	0.3379
428.276	0.351
428.644	0.3301
429.013	0.3236
429.381	0.3176
429.749	0.3157
430.118	0.3856
430.486	0.33
430.854	0.3333
431.222	0.3354
431.59	0.3131
431.958	0.3335
432.326	0.3236
432.694	0.3314
433.062	0.3557
433.43	0.3293
433.798	0.3615
434.166	0.3443
434.533	0.3104
434.901	0.2821
435.269	0.3086
435.636	0.3119
436.004	0.3329
436.372	0.2853
436.739	0.3368
437.107	0.3781
437.474	0.3544
437.841	0.3009
438.209	0.3439
438.576	0.33
438.943	0.2927
439.31	0.3648
439.678	0.2974
440.045	0.3584
440.412	0.35
440.779	0.3751
441.146	0.365
441.513	0.3978
441.88	0.3554
442.247	0.3172
442.613	0.3284
442.98	0.3322
443.347	0.3186
443.714	0.3328
444.08	0.3607
444.447	0.3336
444.813	0.3321
445.18	0.3434
445.546	0.353
445.913	0.3595
446.279	0.3066
446.646	0.2866
447.012	0.3232
447.378	0.3246
447.744	0.3169
448.111	0.3949
448.477	0.3268
448.843	0.3611
449.209	0.3586
449.575	0.325
449.941	0.3328
450.307	0.3277
450.673	0.3467
451.039	0.3475
451.404	0.3547
451.77	0.3267
452.136	0.3604
452.502	0.3521
452.867	0.3329
453.233	0.321
453.598	0.3609
453.964	0.3489
454.329	0.3748
454.695	0.3501
455.06	0.3491
455.425	0.3954
455.791	0.3507
456.156	0.3548
456.521	0.349
456.886	0.3245
457.251	0.3545
457.616	0.3159
457.981	0.3325
458.346	0.3351
458.711	0.3199
459.076	0.3676
459.441	0.3253
459.806	0.3683
460.171	0.3383
460.535	0.3295
460.9	0.3591
461.265	0.3377
461.629	0.3379
461.994	0.3424
462.358	0.3411
462.723	0.3327
463.087	0.3638
463.452	0.3238
463.816	0.3602
464.18	0.3404
464.544	0.3502
464.909	0.3295
465.273	0.323
465.637	0.3756
466.001	0.317
466.365	0.3208
466.729	0.3263
467.093	0.3313
467.457	0.3544
467.821	0.3379
468.185	0.3314
468.548	0.342
468.912	0.3504
469.276	0.3322
469.639	0.3448
470.003	0.3124
470.367	0.303
470.73	0.312
471.094	0.3316
471.457	0.3413
471.82	0.3623
472.184	0.3507
472.547	0.3314
472.91	0.3049
473.274	0.3486
473.637	0.3659
474	0.3354
474.363	0.3718
474.726	0.353
475.089	0.3605
475.452	0.3504
475.815	0.3451
476.178	0.372
476.54	0.3325
476.903	0.3471
477.266	0.3494
477.629	0.3226
477.991	0.3293
478.354	0.3331
478.716	0.3537
479.079	0.3394
479.441	0.364
479.804	0.3413
480.166	0.3451
480.529	0.3573
480.891	0.3452
481.253	0.3281
481.615	0.3517
481.978	0.3584
482.34	0.3563
482.702	0.3463
483.064	0.3309
483.426	0.329
483.788	0.3583
484.15	0.3317
484.512	0.3455
484.873	0.3533
485.235	0.3474
485.597	0.3462
485.959	0.3485
486.32	0.3503
486.682	0.3409
487.043	0.3567
487.405	0.3437
487.766	0.3322
488.128	0.3575
488.489	0.3295
488.85	0.3357
489.212	0.356
489.573	0.3456
489.934	0.3456
490.295	0.3571
490.657	0.3367
491.018	0.3477
491.379	0.3442
491.74	0.3402
492.101	0.3556
492.461	0.3684
492.822	0.3532
493.183	0.354
493.544	0.3392
493.905	0.3368
494.265	0.3403
494.626	0.3389
494.987	0.3589
495.347	0.3402
495.708	0.3376
496.068	0.3359
496.429	0.3374
496.789	0.3514
497.149	0.3566
497.509	0.3475
497.87	0.3478
498.23	0.3467
498.59	0.3411
498.95	0.3525
499.31	0.3536
499.67	0.348
500.03	0.361
500.39	0.3489
500.75	0.3296
501.11	0.3415
501.47	0.3354
501.83	0.3391
502.189	0.3534
502.549	0.3444
502.909	0.3298
503.268	0.3259
503.628	0.3376
503.987	0.3466
504.347	0.3307
504.706	0.3469
505.065	0.3572
505.425	0.3454
505.784	0.3484
506.143	0.3449
506.502	0.3513
506.862	0.3557
507.221	0.3379
507.58	0.3461
507.939	0.3562
508.298	0.3391
508.657	0.3363
509.015	0.3531
509.374	0.3642
509.733	0.3597
510.092	0.3417
510.451	0.3434
510.809	0.3617
511.168	0.3516
511.526	0.3545
511.885	0.3399
512.243	0.349
512.602	0.3383
512.96	0.3537
513.319	0.3395
513.677	0.3451
514.035	0.3422
514.393	0.3513
514.751	0.3472
515.11	0.3429
515.468	0.3491
515.826	0.3475
516.184	0.3592
516.542	0.3443
516.9	0.3376
517.257	0.3418
517.615	0.3425
517.973	0.3367
518.331	0.3445
518.688	0.343
519.046	0.3357
519.404	0.3543
519.761	0.3335
520.119	0.3352
520.476	0.3323
520.834	0.3398
521.191	0.3442
521.548	0.3379
521.906	0.3326
522.263	0.3386
522.62	0.3542
522.977	0.3405
523.334	0.3402
523.691	0.3412
524.048	0.3435
524.405	0.3449
524.762	0.3463
525.119	0.3457
525.476	0.3506
525.833	0.3451
526.189	0.3514
526.546	0.3354
526.903	0.3445
527.259	0.3338
527.616	0.3432
527.973	0.3444
528.329	0.3467
528.685	0.3404
529.042	0.3378
529.398	0.3441
529.755	0.3548
530.111	0.3422
530.467	0.3392
530.823	0.3525
531.179	0.3396
531.535	0.3484
531.891	0.3343
532.247	0.3364
532.603	0.3375
532.959	0.3511
533.315	0.3452
533.671	0.3386
534.027	0.3397
534.382	0.3559
534.738	0.3485
535.094	0.3512
535.449	0.3456
535.805	0.3456
536.16	0.3353
536.516	0.3486
536.871	0.3391
537.226	0.3388
537.582	0.3303
537.937	0.3355
538.292	0.3284
538.647	0.3378
539.003	0.3405
539.358	0.3441
539.713	0.3493
540.068	0.3518
540.423	0.3553
540.778	0.3439
541.132	0.3368
541.487	0.3361
541.842	0.3351
542.197	0.3302
542.552	0.3441
542.906	0.339
543.261	0.3256
543.615	0.3339
543.97	0.3458
544.324	0.3495
544.679	0.3435
545.033	0.3519
545.387	0.3553
545.742	0.3443
546.096	0.3421
546.45	0.3554
546.804	0.3478
547.158	0.343
547.512	0.3477
547.866	0.3386
548.22	0.3389
548.574	0.3427
548.928	0.3346
549.282	0.3333
549.636	0.3394
549.99	0.3424
550.343	0.3552
550.697	0.3389
551.05	0.342
551.404	0.3418
551.758	0.3479
552.111	0.3503
552.464	0.3367
552.818	0.3342
553.171	0.347
553.524	0.3462
553.878	0.3458
554.231	0.3371
554.584	0.3557
554.937	0.351
555.29	0.3452
555.643	0.346
555.996	0.3614
556.349	0.3393
556.702	0.3359
557.055	0.3279
557.408	0.3513
557.76	0.3512
558.113	0.3523
558.466	0.3508
558.818	0.3605
559.171	0.3445
559.523	0.3446
559.876	0.352
560.228	0.3376
560.581	0.35
560.933	0.3406
561.285	0.355
561.638	0.3473
561.99	0.3441
562.342	0.3406
562.694	0.3444
563.046	0.3431
563.398	0.3472
563.75	0.3542
564.102	0.3474
564.454	0.3471
564.806	0.351
565.158	0.34
565.509	0.3426
565.861	0.35
566.213	0.3415
566.564	0.3574
566.916	0.3478
567.267	0.3548
567.619	0.3478
567.97	0.3632
568.322	0.3455
568.673	0.3454
569.024	0.3478
569.376	0.3466
569.727	0.3361
570.078	0.3339
570.429	0.3464
570.78	0.3433
571.131	0.3471
571.482	0.3576
571.833	0.3451
572.184	0.3474
572.535	0.3557
572.885	0.3497
573.236	0.3449
573.587	0.3576
573.938	0.3445
574.288	0.3672
574.639	0.3566
574.989	0.3479
575.34	0.3572
575.69	0.354
576.04	0.341
576.391	0.336
576.741	0.3464
577.091	0.3505
577.442	0.35
577.792	0.3403
578.142	0.3367
578.492	0.3437
578.842	0.3502
579.192	0.3425
579.542	0.3528
579.892	0.345
580.241	0.3431
580.591	0.3587
580.941	0.3421
581.291	0.3539
581.64	0.3539
581.99	0.3493
582.339	0.3503
582.689	0.3609
583.038	0.3588
583.388	0.3547
583.737	0.3481
584.086	0.3594
584.436	0.3422
584.785	0.3616
585.134	0.3512
585.483	0.3515
585.832	0.3391
586.181	0.3491
586.53	0.3576
586.879	0.3624
587.228	0.344
587.577	0.3542
587.926	0.3498
588.275	0.3496
588.623	0.3518
588.972	0.3572
589.321	0.3573
589.669	0.3598
590.018	0.3672
590.366	0.3501
590.715	0.3634
591.063	0.3532
591.412	0.3595
591.76	0.3616
592.108	0.3547
592.456	0.3606
592.805	0.3704
593.153	0.3635
593.501	0.3531
593.849	0.3453
594.197	0.3489
594.545	0.3648
594.893	0.3636
595.24	0.3556
595.588	0.3633
595.936	0.3696
596.284	0.3554
596.631	0.3604
596.979	0.3653
597.327	0.364
597.674	0.3695
598.022	0.357
598.369	0.3666
598.716	0.3576
599.064	0.3584
599.411	0.3652
599.758	0.3522
600.105	0.3502
600.453	0.3498
600.8	0.3653
601.147	0.3652
601.494	0.3513
601.841	0.3578
602.188	0.3574
602.535	0.368
602.881	0.3689
603.228	0.3719
603.575	0.3632
603.922	0.3787
604.268	0.3693
604.615	0.3613
604.961	0.3759
605.308	0.3743
605.654	0.3782
606.001	0.3708
606.347	0.3725
606.693	0.3745
607.04	0.3672
607.386	0.3704
607.732	0.3712
608.078	0.3697
608.424	0.3684
608.77	0.3676
609.116	0.3746
609.462	0.3717
609.808	0.3693
610.154	0.371
610.5	0.3729
610.846	0.3698
611.191	0.3745
611.537	0.3735
611.883	0.3743
612.228	0.379
612.574	0.38
612.919	0.3726
613.265	0.3708
613.61	0.3791
613.955	0.3765
614.301	0.3755
614.646	0.3751
614.991	0.3716
615.336	0.3707
615.681	0.3748
616.026	0.3619
616.371	0.3667
616.716	0.3741
617.061	0.3777
617.406	0.3695
617.751	0.3767
618.096	0.3718
618.44	0.3685
618.785	0.371
619.13	0.3765
619.474	0.3689
619.819	0.3671
620.163	0.3777
620.508	0.359
620.852	0.3727
621.197	0.3829
621.541	0.3747
621.885	0.3695
622.229	0.3734
622.574	0.3825
622.918	0.3802
623.262	0.3715
623.606	0.3642
623.95	0.3685
624.294	0.3655
624.638	0.3627
624.981	0.3734
625.325	0.384
625.669	0.3759
626.013	0.3744
626.356	0.3654
626.7	0.3788
627.043	0.3744
627.387	0.3724
627.73	0.3738
628.074	0.3731
628.417	0.3687
628.761	0.3819
629.104	0.3754
629.447	0.3802
629.79	0.3743
630.133	0.3751
630.476	0.3773
630.819	0.3681
631.162	0.3832
631.505	0.3824
631.848	0.3804
632.191	0.3707
632.534	0.3848
632.877	0.3776
633.219	0.3741
633.562	0.3633
633.905	0.3767
634.247	0.3756
634.59	0.3765
634.932	0.3694
635.275	0.3665
635.617	0.3684
635.959	0.3633
636.302	0.3648
636.644	0.3707
636.986	0.3794
637.328	0.3757
637.67	0.3765
638.012	0.3781
638.354	0.3912
638.696	0.3819
639.038	0.3815
639.38	0.3743
639.722	0.3647
640.064	0.3769
640.405	0.3798
640.747	0.389
641.089	0.3757
641.43	0.3651
641.772	0.3769
642.113	0.3805
642.455	0.3861
642.796	0.3718
643.137	0.3768
643.479	0.3809
643.82	0.4029
644.161	0.3886
644.502	0.3881
644.843	0.3799
645.185	0.3798
645.526	0.3925
645.866	0.39
646.207	0.386
646.548	0.3907
646.889	0.3974
647.23	0.3903
647.571	0.3939
647.911	0.3907
648.252	0.3854
648.592	0.3911
648.933	0.3918
649.273	0.3947
649.614	0.3969
649.954	0.3878
650.295	0.3879
650.635	0.4011
650.975	0.3969
651.315	0.4043
651.656	0.4044
651.996	0.402
652.336	0.3978
652.676	0.4125
653.016	0.3933
653.356	0.4003
653.695	0.4053
654.035	0.4015
654.375	0.3964
654.715	0.3946
655.054	0.4
655.394	0.4101
655.734	0.405
656.073	0.397
656.413	0.4042
656.752	0.4069
657.091	0.4095
657.431	0.416
657.77	0.4039
658.109	0.4028
658.449	0.3965
658.788	0.3971
659.127	0.4075
659.466	0.4075
659.805	0.4064
660.144	0.4116
660.483	0.3997
660.822	0.4125
661.16	0.4077
661.499	0.4064
661.838	0.4072
662.177	0.4142
662.515	0.4125
662.854	0.4119
663.192	0.4148
663.531	0.3959
663.869	0.4091
664.208	0.3968
664.546	0.3929
664.884	0.3951
665.222	0.4043
665.561	0.4031
665.899	0.3971
666.237	0.3995
666.575	0.4151
666.913	0.4138
667.251	0.4133
667.589	0.4216
667.927	0.4242
668.264	0.425
668.602	0.415
668.94	0.4027
669.278	0.411
669.615	0.4125
669.953	0.4086
670.29	0.4131
670.628	0.4004
670.965	0.4007
671.303	0.381
671.64	0.3979
671.977	0.4007
672.314	0.3998
672.652	0.4029
672.989	0.3983
673.326	0.4035
673.663	0.4039
674	0.4035
674.337	0.4018
674.674	0.4078
675.01	0.4022
675.347	0.3948
675.684	0.3984
676.021	0.3921
676.357	0.3835
676.694	0.3899
677.031	0.3796
677.367	0.3731
677.704	0.3824
678.04	0.3694
678.376	0.3662
678.713	0.3676
679.049	0.3822
679.385	0.3846
679.721	0.3714
680.057	0.3743
680.393	0.3659
680.73	0.367
681.065	0.3844
681.401	0.3817
681.737	0.3897
682.073	0.3794
682.409	0.3691
682.745	0.3758
683.08	0.3633
683.416	0.366
683.752	0.3523
684.087	0.3506
684.423	0.3481
684.758	0.3443
685.093	0.3504
685.429	0.3518
685.764	0.3456
686.099	0.3471
686.435	0.3536
686.77	0.3562
687.105	0.3523
687.44	0.3514
687.775	0.3487
688.11	0.349
688.445	0.3525
688.78	0.3514
689.114	0.3457
689.449	0.3392
689.784	0.3347
690.119	0.3339
690.453	0.338
690.788	0.3312
691.122	0.33
691.457	0.331
691.791	0.3144
692.126	0.3173
692.46	0.3256
692.794	0.3237
693.128	0.3114
693.463	0.3369
693.797	0.335
694.131	0.3357
694.465	0.3331
694.799	0.337
695.133	0.3357
695.467	0.3229
695.801	0.3283
696.134	0.3252
696.468	0.3277
696.802	0.3269
697.135	0.3278
697.469	0.327
697.803	0.3262
698.136	0.3223
698.47	0.3085
698.803	0.3149
699.136	0.3059
699.47	0.3181
699.803	0.3179
700.136	0.3179
700.469	0.3107
700.802	0.314
701.135	0.3205
701.468	0.3042
701.801	0.3016
702.134	0.3231
702.467	0.3275
702.8	0.3185
703.133	0.3193
703.465	0.3171
703.798	0.3202
704.131	0.3018
704.463	0.2935
704.796	0.3032
705.128	0.307
705.461	0.3093
705.793	0.3046
706.125	0.304
706.458	0.3085
706.79	0.3102
707.122	0.3136
707.454	0.3029
707.786	0.3006
708.118	0.3109
708.45	0.3069
708.782	0.311
709.114	0.3025
709.446	0.3088
709.778	0.3286
710.11	0.3117
710.441	0.3224
710.773	0.317
711.104	0.3117
711.436	0.3122
711.768	0.3122
712.099	0.3179
712.43	0.3181
712.762	0.3188
713.093	0.3148
713.424	0.3108
713.755	0.3093
714.087	0.3015
714.418	0.312
714.749	0.3265
715.08	0.3135
715.411	0.3084
715.742	0.3114
716.072	0.306
716.403	0.3159
716.734	0.3175
717.065	0.3172
717.395	0.3077
717.726	0.3095
718.057	0.3008
718.387	0.3126
718.718	0.3173
719.048	0.3082
719.378	0.3073
719.709	0.3087
720.039	0.3175
720.369	0.3089
720.699	0.3137
721.029	0.3156
721.359	0.3071
721.689	0.311
722.019	0.3008
722.349	0.2968
722.679	0.306
723.009	0.3044
723.339	0.319
723.669	0.3194
723.998	0.3115
724.328	0.3082
724.657	0.3069
724.987	0.3131
725.316	0.3125
725.646	0.3245
725.975	0.3253
726.305	0.3032
726.634	0.3045
726.963	0.3058
727.292	0.308
727.621	0.3219
727.95	0.3095
728.279	0.3047
728.608	0.3045
728.937	0.3087
729.266	0.3
729.595	0.3018
729.924	0.3117
730.253	0.3003
730.581	0.2942
730.91	0.2998
731.238	0.2999
731.567	0.3032
731.896	0.3192
732.224	0.3114
732.552	0.3095
732.881	0.2993
733.209	0.2993
733.537	0.2938
733.865	0.3003
734.194	0.3072
734.522	0.3107
734.85	0.2996
735.178	0.3206
735.506	0.2921
735.833	0.2994
736.161	0.3072
736.489	0.3091
736.817	0.2981
737.144	0.3057
737.472	0.304
737.8	0.3156
738.127	0.3088
738.455	0.3037
738.782	0.3012
739.11	0.3115
739.437	0.3011
739.764	0.3028
740.091	0.3051
740.419	0.3218
740.746	0.3004
741.073	0.3006
741.4	0.2915
741.727	0.3001
742.054	0.298
742.381	0.3029
742.708	0.3034
743.034	0.3094
743.361	0.2943
743.688	0.3143
744.014	0.3041
744.341	0.2962
744.668	0.2925
744.994	0.3113
745.321	0.3016
745.647	0.3038
745.973	0.3117
746.3	0.3119
746.626	0.3011
746.952	0.3115
747.278	0.3063
747.604	0.2976
747.93	0.2988
748.256	0.2846
748.582	0.2893
748.908	0.2916
749.234	0.2931
749.56	0.3145
749.885	0.3002
750.211	0.2976
750.537	0.296
750.862	0.3072
751.188	0.3022
751.513	0.3013
751.839	0.3038
752.164	0.2994
752.49	0.2878
752.815	0.2998
753.14	0.2948
753.465	0.3074
753.79	0.3047
754.116	0.3145
754.441	0.3066
754.766	0.3073
755.091	0.3036
755.415	0.3083
755.74	0.2918
756.065	0.3014
756.39	0.3027
756.714	0.3265
757.039	0.3117
757.364	0.3022
757.688	0.3162
758.013	0.3107
758.337	0.308
758.662	0.309
758.986	0.3128
759.31	0.3047
759.634	0.2941
759.959	0.2916
760.283	0.2935
760.607	0.293
760.931	0.2902
761.255	0.2935
761.579	0.2885
761.903	0.2944
762.226	0.2902
762.55	0.2962
762.874	0.3014
763.198	0.2899
763.521	0.3014
763.845	0.2989
764.168	0.3116
764.492	0.3045
764.815	0.303
765.139	0.2987
765.462	0.2929
765.785	0.3006
766.109	0.288
766.432	0.3032
766.755	0.3009
767.078	0.2986
767.401	0.2958
767.724	0.2946
768.047	0.283
768.37	0.2932
768.693	0.3002
769.015	0.3067
769.338	0.3105
769.661	0.3049
769.983	0.2877
770.306	0.3005
770.628	0.2826
770.951	0.287
771.273	0.2755
771.596	0.2825
771.918	0.2724
772.24	0.2817
772.562	0.278
772.885	0.2878
773.207	0.2858
773.529	0.2965
773.851	0.2905
774.173	0.2972
774.495	0.323
774.817	0.3175
775.138	0.3044
775.46	0.3086
775.782	0.3077
776.103	0.3101
776.425	0.2909
776.747	0.3011
777.068	0.2999
777.39	0.2918
777.711	0.2962
778.032	0.287
778.354	0.2973
778.675	0.2928
778.996	0.2883
779.317	0.2928
779.638	0.2837
779.959	0.3075
780.28	0.2918
780.601	0.2919
780.922	0.2848
781.243	0.2897
781.564	0.2868
781.885	0.2846
782.205	0.2908
782.526	0.2563
782.847	0.2786
783.167	0.27
783.488	0.2887
783.808	0.2834
784.128	0.282
784.449	0.2914
784.769	0.2838
785.089	0.2878
785.409	0.2867
785.73	0.2898
786.05	0.2882
786.37	0.2905
786.69	0.2952
787.01	0.2927
787.329	0.2952
787.649	0.2892
787.969	0.278
788.289	0.2849
788.608	0.2828
788.928	0.2871
789.248	0.2811
789.567	0.2786
789.887	0.2928
790.206	0.2771
790.525	0.2738
790.845	0.2803
791.164	0.2864
791.483	0.2825
791.802	0.2845
792.121	0.2788
792.44	0.2909
792.76	0.2971
793.078	0.2949
793.397	0.3123
793.716	0.2987
794.035	0.2972
794.354	0.2956
794.672	0.3071
794.991	0.2837
795.31	0.3077
795.628	0.2964
795.947	0.3009
796.265	0.3034
796.584	0.2925
796.902	0.2921
797.22	0.2781
797.538	0.289
797.857	0.2774
798.175	0.2819
798.493	0.3026
798.811	0.2843
799.129	0.2897
799.447	0.2868
799.765	0.2871
800.083	0.2896
800.4	0.29
800.718	0.2878
801.036	0.2956
801.353	0.3006
801.671	0.2906
801.988	0.3081
802.306	0.295
802.623	0.2881
802.941	0.2788
803.258	0.3048
803.575	0.2936
803.892	0.2816
804.21	0.2646
804.527	0.2565
804.844	0.2699
805.161	0.2592
805.478	0.2576
805.795	0.2522
806.111	0.2573
806.428	0.2802
806.745	0.2927
807.062	0.3068
807.378	0.2908
807.695	0.2911
808.011	0.2911
808.328	0.3021
808.644	0.2994
808.961	0.2976
809.277	0.3074
809.593	0.3027
809.91	0.2862
810.226	0.2976
810.542	0.3023
810.858	0.2906
811.174	0.2675
811.49	0.2967
811.806	0.2903
812.122	0.3139
812.438	0.3021
812.753	0.3015
813.069	0.2903
813.385	0.2681
813.7	0.2739
814.016	0.2799
814.331	0.2708
814.647	0.279
814.962	0.2873
815.278	0.283
815.593	0.2939
815.908	0.282
816.223	0.2765
816.538	0.2852
816.854	0.2839
817.169	0.2855
817.484	0.2895
817.799	0.3031
818.113	0.2956
818.428	0.3158
818.743	0.3098
819.058	0.3109
819.372	0.2742
819.687	0.272
820.002	0.2913
820.316	0.2732
820.631	0.2946
820.945	0.2853
821.259	0.282
821.574	0.2911
821.888	0.2844
822.202	0.2639
822.516	0.284
822.83	0.2975
823.145	0.2629
823.459	0.2921
823.772	0.3
824.086	0.2799
824.4	0.2879
824.714	0.2932
825.028	0.289
825.341	0.2753
825.655	0.2748
825.969	0.2918
826.282	0.2925
826.596	0.308
826.909	0.2839
827.222	0.2851
827.536	0.2877
827.849	0.2838
828.162	0.2688
828.475	0.2878
828.789	0.284
829.102	0.2752
829.415	0.2989
829.728	0.289
830.041	0.2814
830.353	0.2682
830.666	0.2784
830.979	0.2865
831.292	0.3071
831.604	0.2915
831.917	0.2958
832.229	0.2956
832.542	0.2911
832.854	0.3024
833.167	0.2861
833.479	0.2702
833.791	0.263
834.104	0.2817
834.416	0.2952
834.728	0.2788
835.04	0.2948
835.352	0.2716
835.664	0.2838
835.976	0.2818
836.288	0.2948
836.599	0.3025
836.911	0.2882
837.223	0.2886
837.535	0.2697
837.846	0.284
838.158	0.2939
838.469	0.2984
838.781	0.2873
839.092	0.2734
839.403	0.2937
839.715	0.2798
840.026	0.2759
840.337	0.2786
840.648	0.2786
840.959	0.2799
841.27	0.2904
841.581	0.2737
841.892	0.2991
842.203	0.2705
842.514	0.2791
842.825	0.2717
843.135	0.2843
843.446	0.2987
843.757	0.288
844.067	0.2649
844.378	0.2941
844.688	0.2584
844.999	0.277
845.309	0.2991
845.619	0.282
845.929	0.2922
846.24	0.2863
846.55	0.2948
846.86	0.3076
847.17	0.2853
847.48	0.3125
847.79	0.2857
848.1	0.2829
848.409	0.2488
848.719	0.2806
849.029	0.2811
849.338	0.2674
849.648	0.2596
849.958	0.2647
850.267	0.2612
850.577	0.2755
850.886	0.3042
851.195	0.2977
851.505	0.2651
851.814	0.2749
852.123	0.271
852.432	0.2822
852.741	0.278
853.05	0.2909
853.359	0.3021
853.668	0.3013
853.977	0.2737
854.286	0.2933
854.595	0.2785
854.903	0.3046
855.212	0.2842
855.521	0.2806
855.829	0.2875
856.138	0.3035
856.446	0.2883
856.754	0.2956
857.063	0.2908
857.371	0.2825
857.679	0.28
857.987	0.2728
858.296	0.2818
858.604	0.2668
858.912	0.2777
859.22	0.2774
859.527	0.2596
859.835	0.2783
860.143	0.3037
860.451	0.2688
860.759	0.2637
861.066	0.2788
861.374	0.2639
861.681	0.2948
861.989	0.2746
862.296	0.2749
862.604	0.274
862.911	0.291
863.218	0.2807
863.526	0.2822
863.833	0.2705
864.14	0.2561
864.447	0.2798
864.754	0.2747
865.061	0.2778
865.368	0.2512
865.675	0.2701
865.981	0.2613
866.288	0.2983
866.595	0.288
866.901	0.2684
867.208	0.3016
867.515	0.2588
867.821	0.2792
868.127	0.2782
868.434	0.2725
868.74	0.2837
869.046	0.2909
869.353	0.2744
869.659	0.282
869.965	0.2793
870.271	0.2985
870.577	0.2501
870.883	0.2791
871.189	0.2729
871.495	0.3184
871.8	0.3134
872.106	0.2724
872.412	0.2871
872.717	0.2686
873.023	0.2621
873.329	0.2578
873.634	0.2853
873.939	0.2605
874.245	0.3034
874.55	0.2632
874.855	0.2842
875.161	0.2604
875.466	0.2827
875.771	0.2767
876.076	0.2707
876.381	0.2849
876.686	0.2757
876.991	0.2799
877.295	0.2518
877.6	0.2803
877.905	0.2815
878.21	0.2865
878.514	0.2786
878.819	0.2794
879.123	0.2978
879.428	0.3121
879.732	0.2691
880.036	0.2983
880.341	0.2805
880.645	0.3042
880.949	0.2708
881.253	0.276
881.557	0.2996
881.861	0.3341
882.165	0.2647
882.469	0.2931
882.773	0.2445
883.077	0.2771
883.381	0.2584
883.684	0.2945
883.988	0.2875
884.292	0.3041
884.595	0.2371
884.899	0.2845
885.202	0.3196
885.505	0.2871
885.809	0.2557
886.112	0.2536
886.415	0.2349
886.718	0.2575
887.022	0.2526
887.325	0.2517
887.628	0.2737
887.931	0.2314
888.233	0.2544
888.536	0.3074
888.839	0.2933
889.142	0.233
889.444	0.29
889.747	0.2868
890.05	0.2552
890.352	0.2797
890.655	0.3136
890.957	0.2809
891.259	0.2727
891.562	0.2746
891.864	0.269
892.166	0.2582
892.468	0.2772
892.77	0.273
893.072	0.2703
893.374	0.2751
893.676	0.2756
893.978	0.2708
894.28	0.2902
894.582	0.2737
894.883	0.2906
895.185	0.2583
895.487	0.2586
895.788	0.275
896.09	0.2778
896.391	0.2744
896.693	0.3006
896.994	0.2601
897.295	0.2665
897.596	0.296
897.898	0.2428
898.199	0.2734
898.5	0.292
898.801	0.3127
899.102	0.2871
899.403	0.3078
899.703	0.26
900.004	0.294
900.305	0.2578
900.606	0.2984
900.906	0.2828
901.207	0.2687
901.507	0.2709
901.808	0.2738
902.108	0.2804
902.409	0.272
902.709	0.2596
903.009	0.2383
903.309	0.2398
903.61	0.2359
903.91	0.2513
904.21	0.3033
904.51	0.2385
904.81	0.2646
905.109	0.2806
905.409	0.3179
905.709	0.2943
906.009	0.2704
906.308	0.2797
906.608	0.281
906.907	0.29
907.207	0.2308
907.506	0.2838
907.806	0.3002
908.105	0.2934
908.404	0.3055
908.704	0.3126
909.003	0.3098
909.302	0.2472
909.601	0.2708
909.9	0.24
910.199	0.2602
910.498	0.2574
910.797	0.2708
911.095	0.2795
911.394	0.2751
911.693	0.2844
911.991	0.3274
912.29	0.2893
912.589	0.259
912.887	0.3056
913.185	0.2361
913.484	0.2499
913.782	0.2637
914.08	0.3289
914.378	0.3022
914.677	0.2837
914.975	0.2818
915.273	0.3085
915.571	0.2761
915.869	0.3014
916.166	0.3026
916.464	0.2853
916.762	0.3283
917.06	0.2933
917.357	0.3082
917.655	0.2816
917.952	0.257
918.25	0.2901
918.547	0.2461
918.845	0.3018
919.142	0.3018
919.439	0.2707
919.736	0.2548
920.034	0.2524
920.331	0.2782
920.628	0.2802
920.925	0.2817
921.222	0.2509
921.518	0.2571
921.815	0.2988
922.112	0.3029
922.409	0.279
922.705	0.2766
923.002	0.2562
923.299	0.2691
923.595	0.2375
923.891	0.2419
924.188	0.2377
924.484	0.2688
924.78	0.2835
925.077	0.3015
925.373	0.2147
925.669	0.2917
925.965	0.2361
926.261	0.2909
926.557	0.2776
926.853	0.2651
927.149	0.3015
927.444	0.3003
927.74	0.3429
928.036	0.2835
928.331	0.2985
928.627	0.2955
928.923	0.323
929.218	0.2723
929.513	0.361
929.809	0.2867
930.104	0.3353
930.399	0.3289
930.694	0.2522
930.99	0.2254
931.285	0.2642
931.58	0.2246
931.875	0.2676
932.169	0.2686
932.464	0.289
932.759	0.3185
933.054	0.2466
933.348	0.2647
933.643	0.2863
933.938	0.2679
934.232	0.2452
934.527	0.2522
934.821	0.3032
935.115	0.2263
935.41	0.2466
935.704	0.3422
935.998	0.2843
936.292	0.2856
936.586	0.3488
936.88	0.3561
937.174	0.2806
937.468	0.3842
937.762	0.3669
938.056	0.3493
938.35	0.2338
938.643	0.3403
938.937	0.2828
939.23	0.2897
939.524	0.2423
939.817	0.2184
940.111	0.2104
940.404	0.2799
940.698	0.2782
940.991	0.2537
941.284	0.3383
941.577	0.3418
941.87	0.2944
942.163	0.2751
942.456	0.5982
942.749	0.0679
943.042	0.3065
943.335	0.1817
943.628	0.3657
943.92	0.1428
944.213	0.3311
944.505	0.2976
944.798	0.2259
945.09	0.1502
945.383	0.4156
945.675	0.2226
945.967	0.1872
946.26	0.3227
946.552	0.3537
946.844	0.4517
947.136	0.312
947.428	0.5405
947.72	0.349
948.012	0.4751
948.304	0.3617
948.596	0.3289
948.887	0.3316
949.179	0.106
949.471	0.3238
949.762	0.1478
950.054	0.124
950.345	0.3035
950.637	0.5249
950.928	0.6232
951.219	0.267
951.511	0.3594
951.802	0.2377
952.093	0.5939
952.384	0.3099
952.675	0.272
952.966	0.1909
953.257	0.1389
953.548	0.4073
953.839	0.3481
954.13	0.3436
954.42	0.3278
954.711	0.1851
955.001	0.4946
955.292	0.2115
955.582	0.2314
955.873	0.0561
956.163	0.541
956.454	0.0913
956.744	0.583
957.034	0.2689
957.324	0.2169
957.614	0.1424
957.904	0.3769
958.194	0.2487
958.484	0.1761
958.774	0.2151
959.064	0.1838
959.353	0.2163
959.643	0.4059
959.933	0.7789
960.222	0.2685
960.512	0.3639
960.801	0.4448
961.091	0.2804
961.38	0.0934
961.669	0.3365
961.959	0.0561
962.248	0.3301
962.537	0.0922
962.826	0.6411
963.115	0.3893
963.404	0.4106
963.693	0.4081
963.982	0.2673
964.271	0.3652
964.559	0.2272
964.848	0.3088
965.137	0.5785
965.425	0.2522
965.714	0.2915
966.002	0.5098
966.291	0.3138
966.579	0.6662
966.867	0.434
967.156	0.2365
967.444	0.0955
967.732	0.5713
968.02	0.0755
968.308	0.4506
968.596	0.2434
968.884	0.2025
969.172	0.3969
969.459	0.1424
969.747	0.2305
970.035	0.438
970.322	0.2006
970.61	0.2917
970.898	0.0049
971.185	0.1151
971.472	0.3583
971.76	0.2811
972.047	0.2411
972.334	0.1054
972.621	0.24
972.909	0.3697
973.196	0.5058
973.483	0.1761
973.77	0.3543
974.056	0.526
974.343	0.3507
974.63	0.3709
974.917	0.4099
975.203	0.2072
975.49	0.3238
975.777	-0.003
976.063	0.3366
976.35	0.1856
976.636	0.2
976.922	0.147
977.209	0.1642
977.495	0.3298
977.781	0.2486
978.067	-0.0235
978.353	0.0538
978.639	0.3897
978.925	0.463
979.211	0.0123
979.497	0.4208
979.782	0.2779
980.068	0.2928
980.354	0.1394
980.639	0.2729
980.925	0.2228
981.21	0.3284
981.496	0.2919
981.781	0.1761
982.067	0.3089
982.352	0.6167
982.637	0.1782
982.922	0.2477
983.207	0.2493
983.492	0.0481
983.777	0.2425
984.062	0.3826
984.347	0.1525
984.632	0.9263
984.917	0.3105
985.201	0.3645
985.486	0.0746
985.771	0.3216
986.055	0.0716
986.34	0.185
986.624	0.1072
986.908	-0
987.193	0.3003
987.477	0.1692
987.761	0.4188
988.045	1.3442
988.329	-0.2045
988.613	0.6136
988.897	0.0461
989.181	0.4005
989.465	0.1845
989.749	0.3617
990.032	0.8922
990.316	0.4149
990.6	1.1127
990.883	0.6851
991.167	-0.0532
991.45	-0.1321
991.734	-0.0873
992.017	-0.0447
992.3	0.5794
992.583	0.3259
992.867	0.4207
993.15	-0.008
993.433	0.1735
993.716	0.3785
993.999	0.3795
994.282	-0.031
994.564	0.1947
994.847	0.0943
995.13	0.8737
995.413	0.2294
995.695	-0.0067
995.978	0.4982
996.26	0.9087
996.543	-0.2033
996.825	0.0396
997.107	-0
997.389	-0
997.672	0.4838
997.954	0.0981
998.236	0.2646
998.518	0.6198
998.8	0.0488
999.082	0.752
999.364	-0.3073
999.645	0.1932
999.927	0.4796
1000.209	0.2201
1000.491	0.4681
1000.772	0.3645
1001.054	0.2387
1001.335	0.3059
1001.616	-0.0627
1001.898	0.6807
1002.179	0.2527
1002.46	-0
1002.742	-0
1003.023	0.1377
1003.304	-0.1881
1003.585	0.1279
1003.866	-0.0544
1004.147	0.0215
1004.427	0.2916
1004.708	0.1104
1004.989	-0.0678
1005.269	0.3533
1005.55	0.402
1005.831	0.0015
1006.111	0.2657
1006.392	-0
1006.672	0.2584
1006.952	-0
1007.232	-0.0027
1007.513	-0
1007.793	0.6198
1008.073	-0.2174
1008.353	1.1235
1008.633	0.1515
1008.913	0.1693
1009.193	0.339
1009.472	-0
1009.752	1.7174
1010.032	0.0026
1010.312	-0.0382
1010.591	-0
1010.871	0.0417
1011.15	-0.0877
1011.429	0.2961
1011.709	0.3317
1011.988	-0
1012.267	0.3768
1012.547	-0.4568
1012.826	-0.1786
1013.105	-0.505
1013.384	-0.7143
1013.663	-0
1013.941	-0.0053
1014.22	-0
1014.499	-0
1014.778	-0.3685
1015.056	0.3891
1015.335	-0.3296
1015.614	0.3899
1015.892	0.298
1016.17	-0.33
1016.449	-0.1609
1016.727	0.307
1017.005	0.1665
1017.284	0.1665
1017.562	0.1665
