Data from G6_V2_T10_Absorbance_15-03-13-301.txt Node
Date: Mon Sep 09 15:03:13 IST 2024
User: Optics Lab
Spectrometer: FLMS06900
Trigger mode: 0
Integration Time (sec): 6.000000E-3
Scans to average: 1
Electric dark correction enabled: true
Nonlinearity correction enabled: false
Boxcar width: 0
XAxis mode: Wavelengths
Number of Pixels in Spectrum: 2048
>>>>>Begin Spectral Data<<<<<
339.78	-0
340.159	-0
340.537	-0
340.915	-0
341.293	0.0177
341.671	-0.1101
342.049	0.2355
342.427	-1.0203
342.805	0.2669
343.183	0.0838
343.561	-0.1394
343.939	-0.3053
344.317	-0
344.694	-0
345.072	-0.2853
345.45	-0
345.827	-0.2684
346.205	-0.5687
346.583	-0
346.96	-2.1008
347.338	-0
347.715	0.2003
348.092	-0
348.47	0.0549
348.847	-0
349.224	-0.1313
349.601	0.4564
349.979	-0.2984
350.356	0.0183
350.733	-0
351.11	-0.2265
351.487	0.4879
351.864	-0
352.241	-1.3268
352.618	-0.4625
352.995	-0.4676
353.372	-0.4939
353.748	-0
354.125	-0.1603
354.502	0.0435
354.878	-0.177
355.255	0.2865
355.632	0.0377
356.008	0.1979
356.385	-0.3854
356.761	-0
357.137	-0
357.514	0.2991
357.89	-0
358.266	-0
358.643	-0.0642
359.019	-0
359.395	-0.0343
359.771	0.2633
360.147	-0.4351
360.523	-0.6623
360.899	0.3221
361.275	-0.5991
361.651	0.441
362.027	-0.0802
362.403	0.4455
362.779	-1.0482
363.155	0.393
363.53	0.3498
363.906	0.7897
364.282	-0
364.657	0.1469
365.033	0.4735
365.408	0.5705
365.784	-0.0968
366.159	-0.2199
366.535	-0
366.91	0.208
367.285	-0.0606
367.66	0.2558
368.036	-1.7027
368.411	0.2303
368.786	1.2119
369.161	0.2925
369.536	0.3544
369.911	0.4034
370.286	-0
370.661	0.0063
371.036	0.2894
371.411	-0
371.786	0.0485
372.16	0.1486
372.535	-0
372.91	0.2262
373.285	-0
373.659	0.2438
374.034	0.4869
374.408	0.2333
374.783	0.399
375.157	-0
375.532	0.1942
375.906	-1.862
376.28	0.2499
376.655	0.6002
377.029	0.5572
377.403	0.3114
377.777	0.2769
378.151	-0.2708
378.525	0.5588
378.899	0.115
379.273	0.1233
379.647	0.1029
380.021	0.2521
380.395	0.1898
380.769	0.392
381.143	0.6935
381.517	0.2468
381.89	0.8014
382.264	0.251
382.638	-0.0247
383.011	0.1667
383.385	0.3473
383.758	0.1591
384.132	0.2218
384.505	0.1116
384.878	0.241
385.252	0.1186
385.625	-0
385.998	0.1953
386.372	-0
386.745	0.1733
387.118	0.5152
387.491	0.3086
387.864	0.2821
388.237	0.569
388.61	0.6831
388.983	0.2736
389.356	0.4183
389.729	0.3521
390.101	0.2464
390.474	0.3041
390.847	0.4436
391.219	0.443
391.592	0.8487
391.965	0.6275
392.337	0.1912
392.71	0.2872
393.082	0.433
393.455	0.3479
393.827	0.3351
394.199	0.2365
394.572	0.6815
394.944	0.3779
395.316	0.5137
395.688	0.2858
396.06	0.2463
396.433	0.2783
396.805	0.2351
397.177	0.4512
397.549	0.3167
397.92	0.3543
398.292	0.1536
398.664	0.4305
399.036	0.3613
399.408	0.2448
399.779	0.2116
400.151	0.3863
400.523	0.4182
400.894	0.4128
401.266	0.3028
401.637	0.341
402.009	0.1858
402.38	0.3166
402.752	0.2985
403.123	0.3797
403.494	0.5019
403.866	0.3511
404.237	0.3023
404.608	0.2282
404.979	0.4048
405.35	0.4025
405.721	0.351
406.092	0.3798
406.463	0.4698
406.834	0.4908
407.205	0.2214
407.576	0.287
407.947	0.3504
408.317	0.3052
408.688	0.3453
409.059	0.2599
409.429	0.275
409.8	0.3376
410.171	0.3301
410.541	0.3324
410.912	0.4357
411.282	0.3436
411.652	0.3126
412.023	0.2349
412.393	0.3006
412.763	0.291
413.133	0.2018
413.504	0.2875
413.874	0.3897
414.244	0.3734
414.614	0.2919
414.984	0.2707
415.354	0.2971
415.724	0.5253
416.094	0.3927
416.463	0.345
416.833	0.3462
417.203	0.368
417.573	0.344
417.942	0.3495
418.312	0.4094
418.682	0.2832
419.051	0.3207
419.421	0.3153
419.79	0.2784
420.159	0.3862
420.529	0.2933
420.898	0.2923
421.267	0.2786
421.637	0.3008
422.006	0.3441
422.375	0.3023
422.744	0.3574
423.113	0.2823
423.482	0.3439
423.851	0.3372
424.22	0.3317
424.589	0.305
424.958	0.3168
425.327	0.3317
425.695	0.3196
426.064	0.2867
426.433	0.4045
426.802	0.3403
427.17	0.35
427.539	0.2897
427.907	0.3429
428.276	0.3315
428.644	0.3321
429.013	0.2896
429.381	0.2648
429.749	0.3474
430.118	0.2995
430.486	0.3281
430.854	0.2996
431.222	0.3526
431.59	0.3284
431.958	0.3487
432.326	0.3652
432.694	0.3113
433.062	0.3383
433.43	0.2966
433.798	0.3507
434.166	0.3121
434.533	0.2901
434.901	0.255
435.269	0.271
435.636	0.2652
436.004	0.3124
436.372	0.2447
436.739	0.3463
437.107	0.3047
437.474	0.3485
437.841	0.3058
438.209	0.3219
438.576	0.2873
438.943	0.2895
439.31	0.3158
439.678	0.3086
440.045	0.2914
440.412	0.2962
440.779	0.3364
441.146	0.2894
441.513	0.31
441.88	0.2993
442.247	0.3013
442.613	0.2954
442.98	0.3643
443.347	0.2911
443.714	0.2973
444.08	0.3485
444.447	0.3033
444.813	0.3166
445.18	0.3208
445.546	0.3221
445.913	0.2993
446.279	0.3315
446.646	0.2911
447.012	0.2891
447.378	0.2981
447.744	0.3342
448.111	0.3155
448.477	0.3029
448.843	0.3692
449.209	0.3451
449.575	0.3287
449.941	0.3144
450.307	0.2913
450.673	0.302
451.039	0.3009
451.404	0.3166
451.77	0.3083
452.136	0.3244
452.502	0.3139
452.867	0.2986
453.233	0.2974
453.598	0.2879
453.964	0.3323
454.329	0.3374
454.695	0.3192
455.06	0.3109
455.425	0.3016
455.791	0.3343
456.156	0.3084
456.521	0.3193
456.886	0.3074
457.251	0.3118
457.616	0.3134
457.981	0.3067
458.346	0.2901
458.711	0.2885
459.076	0.3007
459.441	0.3165
459.806	0.3109
460.171	0.2908
460.535	0.3261
460.9	0.3257
461.265	0.3206
461.629	0.2676
461.994	0.3025
462.358	0.2886
462.723	0.3038
463.087	0.3446
463.452	0.3088
463.816	0.3238
464.18	0.3024
464.544	0.3313
464.909	0.2941
465.273	0.2887
465.637	0.3078
466.001	0.2957
466.365	0.3051
466.729	0.328
467.093	0.2941
467.457	0.3106
467.821	0.3167
468.185	0.2952
468.548	0.3007
468.912	0.3318
469.276	0.2859
469.639	0.2988
470.003	0.2808
470.367	0.2772
470.73	0.2871
471.094	0.3136
471.457	0.2872
471.82	0.3249
472.184	0.3181
472.547	0.3424
472.91	0.3134
473.274	0.3088
473.637	0.3135
474	0.2961
474.363	0.3464
474.726	0.3123
475.089	0.3059
475.452	0.3068
475.815	0.3292
476.178	0.3459
476.54	0.3031
476.903	0.3127
477.266	0.3182
477.629	0.3055
477.991	0.3041
478.354	0.3131
478.716	0.3005
479.079	0.3088
479.441	0.321
479.804	0.3324
480.166	0.3121
480.529	0.3154
480.891	0.2955
481.253	0.3176
481.615	0.316
481.978	0.3289
482.34	0.3235
482.702	0.3216
483.064	0.3013
483.426	0.2963
483.788	0.3117
484.15	0.3049
484.512	0.3248
484.873	0.3021
485.235	0.3251
485.597	0.3223
485.959	0.2963
486.32	0.3301
486.682	0.2994
487.043	0.3203
487.405	0.3108
487.766	0.299
488.128	0.3218
488.489	0.3078
488.85	0.3002
489.212	0.3106
489.573	0.304
489.934	0.3151
490.295	0.3266
490.657	0.2977
491.018	0.3058
491.379	0.3165
491.74	0.2864
492.101	0.3142
492.461	0.3184
492.822	0.3077
493.183	0.3087
493.544	0.3092
493.905	0.2943
494.265	0.2998
494.626	0.3068
494.987	0.3146
495.347	0.3087
495.708	0.3107
496.068	0.3015
496.429	0.3052
496.789	0.3135
497.149	0.3083
497.509	0.3164
497.87	0.3064
498.23	0.3041
498.59	0.304
498.95	0.3044
499.31	0.3087
499.67	0.3122
500.03	0.3039
500.39	0.3065
500.75	0.3066
501.11	0.3088
501.47	0.2945
501.83	0.3062
502.189	0.3139
502.549	0.2981
502.909	0.3008
503.268	0.2808
503.628	0.2925
503.987	0.3002
504.347	0.3028
504.706	0.3054
505.065	0.3041
505.425	0.3064
505.784	0.3082
506.143	0.3138
506.502	0.3086
506.862	0.3112
507.221	0.3026
507.58	0.292
507.939	0.3039
508.298	0.3035
508.657	0.3025
509.015	0.2965
509.374	0.316
509.733	0.31
510.092	0.3027
510.451	0.3003
510.809	0.3098
511.168	0.3097
511.526	0.3081
511.885	0.2974
512.243	0.2992
512.602	0.3029
512.96	0.3201
513.319	0.2948
513.677	0.2855
514.035	0.3126
514.393	0.3063
514.751	0.3065
515.11	0.3111
515.468	0.3025
515.826	0.3043
516.184	0.3142
516.542	0.3034
516.9	0.303
517.257	0.2988
517.615	0.31
517.973	0.301
518.331	0.3083
518.688	0.2948
519.046	0.2937
519.404	0.2945
519.761	0.3008
520.119	0.3139
520.476	0.2981
520.834	0.3091
521.191	0.2973
521.548	0.3032
521.906	0.3022
522.263	0.2995
522.62	0.303
522.977	0.2988
523.334	0.3015
523.691	0.3031
524.048	0.3081
524.405	0.312
524.762	0.301
525.119	0.3113
525.476	0.3071
525.833	0.3053
526.189	0.3053
526.546	0.3019
526.903	0.2963
527.259	0.3004
527.616	0.2984
527.973	0.302
528.329	0.2996
528.685	0.2949
529.042	0.3012
529.398	0.2949
529.755	0.2982
530.111	0.2962
530.467	0.2938
530.823	0.3042
531.179	0.3053
531.535	0.2962
531.891	0.2894
532.247	0.2976
532.603	0.3004
532.959	0.3048
533.315	0.3083
533.671	0.3037
534.027	0.3102
534.382	0.3099
534.738	0.2979
535.094	0.3064
535.449	0.3068
535.805	0.2931
536.16	0.287
536.516	0.2894
536.871	0.2806
537.226	0.2849
537.582	0.2887
537.937	0.2909
538.292	0.2888
538.647	0.2856
539.003	0.2928
539.358	0.3078
539.713	0.2988
540.068	0.3049
540.423	0.3017
540.778	0.2962
541.132	0.2847
541.487	0.2756
541.842	0.2826
542.197	0.2841
542.552	0.2857
542.906	0.2793
543.261	0.2956
543.615	0.2929
543.97	0.298
544.324	0.2952
544.679	0.3032
545.033	0.3058
545.387	0.2978
545.742	0.3064
546.096	0.2966
546.45	0.2976
546.804	0.3014
547.158	0.3051
547.512	0.2936
547.866	0.2945
548.22	0.2797
548.574	0.2945
548.928	0.2889
549.282	0.2871
549.636	0.2921
549.99	0.2901
550.343	0.3033
550.697	0.2997
551.05	0.2885
551.404	0.2984
551.758	0.2876
552.111	0.2843
552.464	0.2833
552.818	0.2856
553.171	0.2937
553.524	0.2977
553.878	0.2938
554.231	0.2791
554.584	0.3092
554.937	0.3085
555.29	0.2974
555.643	0.2905
555.996	0.2961
556.349	0.2992
556.702	0.2928
557.055	0.2975
557.408	0.303
557.76	0.295
558.113	0.3015
558.466	0.3011
558.818	0.2984
559.171	0.2929
559.523	0.2985
559.876	0.2953
560.228	0.2888
560.581	0.2877
560.933	0.2935
561.285	0.2958
561.638	0.2941
561.99	0.2924
562.342	0.292
562.694	0.2982
563.046	0.3019
563.398	0.3024
563.75	0.2974
564.102	0.2987
564.454	0.2943
564.806	0.3015
565.158	0.3005
565.509	0.3
565.861	0.295
566.213	0.2878
566.564	0.2937
566.916	0.2981
567.267	0.3018
567.619	0.304
567.97	0.302
568.322	0.3003
568.673	0.2987
569.024	0.2918
569.376	0.3092
569.727	0.2905
570.078	0.2888
570.429	0.2951
570.78	0.3059
571.131	0.3048
571.482	0.2974
571.833	0.3078
572.184	0.2973
572.535	0.3075
572.885	0.2982
573.236	0.296
573.587	0.3057
573.938	0.3097
574.288	0.3019
574.639	0.3018
574.989	0.297
575.34	0.3008
575.69	0.3138
576.04	0.3008
576.391	0.2954
576.741	0.3028
577.091	0.2994
577.442	0.2928
577.792	0.2974
578.142	0.2986
578.492	0.2909
578.842	0.3071
579.192	0.2975
579.542	0.3104
579.892	0.2973
580.241	0.3007
580.591	0.3077
580.941	0.3002
581.291	0.3143
581.64	0.3056
581.99	0.3009
582.339	0.2994
582.689	0.3085
583.038	0.2953
583.388	0.3135
583.737	0.3003
584.086	0.3069
584.436	0.293
584.785	0.3041
585.134	0.2993
585.483	0.2913
585.832	0.2912
586.181	0.3004
586.53	0.3045
586.879	0.3014
587.228	0.2961
587.577	0.3099
587.926	0.2959
588.275	0.298
588.623	0.297
588.972	0.3007
589.321	0.2998
589.669	0.3058
590.018	0.308
590.366	0.3054
590.715	0.3073
591.063	0.3058
591.412	0.3062
591.76	0.3153
592.108	0.3198
592.456	0.3076
592.805	0.3156
593.153	0.3084
593.501	0.3119
593.849	0.287
594.197	0.3072
594.545	0.3228
594.893	0.3238
595.24	0.316
595.588	0.3204
595.936	0.3282
596.284	0.3141
596.631	0.3045
596.979	0.3164
597.327	0.3201
597.674	0.3238
598.022	0.3208
598.369	0.3172
598.716	0.3108
599.064	0.3119
599.411	0.3089
599.758	0.3161
600.105	0.3092
600.453	0.3102
600.8	0.306
601.147	0.321
601.494	0.3172
601.841	0.3091
602.188	0.3047
602.535	0.3153
602.881	0.3128
603.228	0.3193
603.575	0.3136
603.922	0.3203
604.268	0.3266
604.615	0.3234
604.961	0.3176
605.308	0.322
605.654	0.3249
606.001	0.3192
606.347	0.3231
606.693	0.3195
607.04	0.3208
607.386	0.3269
607.732	0.3262
608.078	0.3271
608.424	0.3221
608.77	0.3186
609.116	0.3293
609.462	0.3266
609.808	0.3252
610.154	0.3304
610.5	0.3246
610.846	0.325
611.191	0.3218
611.537	0.3225
611.883	0.3337
612.228	0.3251
612.574	0.3244
612.919	0.3251
613.265	0.3236
613.61	0.3233
613.955	0.3229
614.301	0.3253
614.646	0.3199
614.991	0.3303
615.336	0.3253
615.681	0.3334
616.026	0.3209
616.371	0.3324
616.716	0.334
617.061	0.3246
617.406	0.3195
617.751	0.3287
618.096	0.3365
618.44	0.3281
618.785	0.3331
619.13	0.3289
619.474	0.3323
619.819	0.3226
620.163	0.3356
620.508	0.3205
620.852	0.3249
621.197	0.3358
621.541	0.3326
621.885	0.3302
622.229	0.329
622.574	0.3297
622.918	0.3341
623.262	0.3243
623.606	0.3201
623.95	0.3249
624.294	0.3164
624.638	0.3232
624.981	0.3317
625.325	0.3342
625.669	0.3248
626.013	0.3241
626.356	0.317
626.7	0.3359
627.043	0.3201
627.387	0.3284
627.73	0.3255
628.074	0.3271
628.417	0.3283
628.761	0.3356
629.104	0.3322
629.447	0.324
629.79	0.3197
630.133	0.3305
630.476	0.3339
630.819	0.3234
631.162	0.3335
631.505	0.3347
631.848	0.3295
632.191	0.319
632.534	0.3285
632.877	0.3218
633.219	0.3242
633.562	0.3233
633.905	0.3301
634.247	0.3207
634.59	0.3357
634.932	0.318
635.275	0.3224
635.617	0.322
635.959	0.3209
636.302	0.3194
636.644	0.323
636.986	0.3262
637.328	0.3348
637.67	0.3339
638.012	0.3352
638.354	0.338
638.696	0.3383
639.038	0.3283
639.38	0.3336
639.722	0.3234
640.064	0.3336
640.405	0.3466
640.747	0.343
641.089	0.3313
641.43	0.324
641.772	0.3403
642.113	0.3407
642.455	0.339
642.796	0.3322
643.137	0.3249
643.479	0.3348
643.82	0.3405
644.161	0.3406
644.502	0.3399
644.843	0.3378
645.185	0.3468
645.526	0.354
645.866	0.3417
646.207	0.3507
646.548	0.3466
646.889	0.3572
647.23	0.3458
647.571	0.3502
647.911	0.3536
648.252	0.3442
648.592	0.3463
648.933	0.3472
649.273	0.3516
649.614	0.3498
649.954	0.357
650.295	0.3544
650.635	0.355
650.975	0.3577
651.315	0.3575
651.656	0.3593
651.996	0.3542
652.336	0.3632
652.676	0.3613
653.016	0.3574
653.356	0.3638
653.695	0.3573
654.035	0.3549
654.375	0.3498
654.715	0.3588
655.054	0.3586
655.394	0.3713
655.734	0.3673
656.073	0.3632
656.413	0.3681
656.752	0.369
657.091	0.3537
657.431	0.3778
657.77	0.3725
658.109	0.3671
658.449	0.3628
658.788	0.3714
659.127	0.3692
659.466	0.3658
659.805	0.3737
660.144	0.369
660.483	0.3818
660.822	0.3869
661.16	0.3754
661.499	0.3718
661.838	0.3776
662.177	0.3686
662.515	0.3643
662.854	0.3596
663.192	0.3665
663.531	0.3545
663.869	0.3614
664.208	0.3552
664.546	0.3674
664.884	0.3679
665.222	0.3761
665.561	0.3801
665.899	0.364
666.237	0.3674
666.575	0.3848
666.913	0.3812
667.251	0.3706
667.589	0.3871
667.927	0.3803
668.264	0.3856
668.602	0.3787
668.94	0.3629
669.278	0.3582
669.615	0.3592
669.953	0.3597
670.29	0.3667
670.628	0.3521
670.965	0.3547
671.303	0.3456
671.64	0.3606
671.977	0.363
672.314	0.3792
672.652	0.3689
672.989	0.367
673.326	0.3662
673.663	0.3595
674	0.3677
674.337	0.3575
674.674	0.3597
675.01	0.3589
675.347	0.3581
675.684	0.3555
676.021	0.3432
676.357	0.3268
676.694	0.333
677.031	0.3222
677.367	0.3188
677.704	0.3254
678.04	0.3277
678.376	0.3191
678.713	0.3278
679.049	0.343
679.385	0.3451
679.721	0.3328
680.057	0.3383
680.393	0.3347
680.73	0.3335
681.065	0.3342
681.401	0.3406
681.737	0.3373
682.073	0.3277
682.409	0.3142
682.745	0.3129
683.08	0.3109
683.416	0.3102
683.752	0.2941
684.087	0.2905
684.423	0.2954
684.758	0.2892
685.093	0.2926
685.429	0.3034
685.764	0.291
686.099	0.3025
686.435	0.3022
686.77	0.2914
687.105	0.29
687.44	0.2946
687.775	0.2799
688.11	0.3001
688.445	0.291
688.78	0.2897
689.114	0.2949
689.449	0.2872
689.784	0.2791
690.119	0.2732
690.453	0.2807
690.788	0.2771
691.122	0.278
691.457	0.2774
691.791	0.2562
692.126	0.2647
692.46	0.2706
692.794	0.2687
693.128	0.2685
693.463	0.2638
693.797	0.2677
694.131	0.2718
694.465	0.2633
694.799	0.2712
695.133	0.271
695.467	0.2576
695.801	0.2729
696.134	0.2729
696.468	0.2684
696.802	0.2617
697.135	0.272
697.469	0.2575
697.803	0.257
698.136	0.2571
698.47	0.2593
698.803	0.2579
699.136	0.2454
699.47	0.2516
699.803	0.2614
700.136	0.2473
700.469	0.2507
700.802	0.253
701.135	0.2595
701.468	0.248
701.801	0.2433
702.134	0.2541
702.467	0.2576
702.8	0.2588
703.133	0.2573
703.465	0.2576
703.798	0.2542
704.131	0.2456
704.463	0.2409
704.796	0.2531
705.128	0.2514
705.461	0.2459
705.793	0.2387
706.125	0.2404
706.458	0.2489
706.79	0.2423
707.122	0.2428
707.454	0.2435
707.786	0.246
708.118	0.2433
708.45	0.2456
708.782	0.2464
709.114	0.2404
709.446	0.2499
709.778	0.2482
710.11	0.2488
710.441	0.254
710.773	0.2569
711.104	0.2421
711.436	0.25
711.768	0.2309
712.099	0.2414
712.43	0.2452
712.762	0.2443
713.093	0.2529
713.424	0.247
713.755	0.2386
714.087	0.2368
714.418	0.2504
714.749	0.2467
715.08	0.2387
715.411	0.2446
715.742	0.2318
716.072	0.2372
716.403	0.2493
716.734	0.252
717.065	0.2435
717.395	0.2414
717.726	0.235
718.057	0.2418
718.387	0.2378
718.718	0.2373
719.048	0.253
719.378	0.2486
719.709	0.2452
720.039	0.2432
720.369	0.2279
720.699	0.2439
721.029	0.2487
721.359	0.248
721.689	0.2376
722.019	0.2384
722.349	0.2403
722.679	0.2444
723.009	0.2308
723.339	0.2373
723.669	0.2441
723.998	0.2495
724.328	0.2462
724.657	0.2469
724.987	0.2394
725.316	0.2385
725.646	0.247
725.975	0.2407
726.305	0.2468
726.634	0.2418
726.963	0.2318
727.292	0.2366
727.621	0.2578
727.95	0.2544
728.279	0.2353
728.608	0.238
728.937	0.2374
729.266	0.241
729.595	0.2498
729.924	0.2389
730.253	0.2293
730.581	0.2295
730.91	0.2312
731.238	0.2372
731.567	0.2363
731.896	0.243
732.224	0.2477
732.552	0.2342
732.881	0.2276
733.209	0.2333
733.537	0.2431
733.865	0.2295
734.194	0.2351
734.522	0.2355
734.85	0.2358
735.178	0.2329
735.506	0.2342
735.833	0.2409
736.161	0.2439
736.489	0.246
736.817	0.234
737.144	0.2476
737.472	0.2353
737.8	0.2393
738.127	0.2405
738.455	0.2452
738.782	0.2329
739.11	0.2348
739.437	0.2221
739.764	0.226
740.091	0.2294
740.419	0.2381
740.746	0.2368
741.073	0.2374
741.4	0.2328
741.727	0.2427
742.054	0.2337
742.381	0.2233
742.708	0.2329
743.034	0.241
743.361	0.2491
743.688	0.2312
744.014	0.246
744.341	0.2329
744.668	0.2359
744.994	0.2458
745.321	0.2427
745.647	0.2372
745.973	0.2448
746.3	0.2458
746.626	0.2304
746.952	0.2387
747.278	0.2449
747.604	0.237
747.93	0.223
748.256	0.2268
748.582	0.2229
748.908	0.2382
749.234	0.2164
749.56	0.2423
749.885	0.2436
750.211	0.2372
750.537	0.2341
750.862	0.2429
751.188	0.2417
751.513	0.2445
751.839	0.2336
752.164	0.2324
752.49	0.221
752.815	0.2266
753.14	0.227
753.465	0.2169
753.79	0.2263
754.116	0.2304
754.441	0.2352
754.766	0.2185
755.091	0.2368
755.415	0.2322
755.74	0.2275
756.065	0.2282
756.39	0.233
756.714	0.235
757.039	0.2371
757.364	0.242
757.688	0.2335
758.013	0.2307
758.337	0.2379
758.662	0.237
758.986	0.2414
759.31	0.2453
759.634	0.2366
759.959	0.2269
760.283	0.236
760.607	0.2398
760.931	0.2419
761.255	0.2236
761.579	0.2255
761.903	0.2306
762.226	0.2249
762.55	0.2233
762.874	0.2306
763.198	0.2129
763.521	0.2293
763.845	0.229
764.168	0.2276
764.492	0.2265
764.815	0.2316
765.139	0.2343
765.462	0.226
765.785	0.2294
766.109	0.2194
766.432	0.2342
766.755	0.2303
767.078	0.2302
767.401	0.235
767.724	0.2233
768.047	0.2191
768.37	0.2422
768.693	0.2348
769.015	0.2381
769.338	0.2477
769.661	0.2443
769.983	0.2318
770.306	0.2345
770.628	0.2296
770.951	0.2299
771.273	0.2215
771.596	0.2105
771.918	0.2181
772.24	0.2303
772.562	0.221
772.885	0.2308
773.207	0.2208
773.529	0.2126
773.851	0.2122
774.173	0.2205
774.495	0.2357
774.817	0.2335
775.138	0.2263
775.46	0.2323
775.782	0.2331
776.103	0.223
776.425	0.2199
776.747	0.2188
777.068	0.2171
777.39	0.2198
777.711	0.2199
778.032	0.228
778.354	0.2214
778.675	0.2328
778.996	0.2313
779.317	0.23
779.638	0.2271
779.959	0.2435
780.28	0.223
780.601	0.2227
780.922	0.2198
781.243	0.233
781.564	0.2099
781.885	0.2154
782.205	0.2217
782.526	0.1993
782.847	0.2146
783.167	0.2097
783.488	0.2168
783.808	0.2031
784.128	0.1964
784.449	0.2143
784.769	0.214
785.089	0.222
785.409	0.225
785.73	0.2179
786.05	0.2168
786.37	0.2232
786.69	0.2113
787.01	0.2199
787.329	0.2383
787.649	0.2077
787.969	0.2183
788.289	0.2058
788.608	0.2125
788.928	0.2132
789.248	0.2141
789.567	0.2153
789.887	0.2268
790.206	0.2111
790.525	0.2216
790.845	0.2247
791.164	0.2202
791.483	0.2223
791.802	0.2362
792.121	0.2327
792.44	0.2222
792.76	0.2289
793.078	0.2316
793.397	0.2471
793.716	0.2427
794.035	0.2343
794.354	0.2201
794.672	0.2245
794.991	0.2204
795.31	0.2144
795.628	0.2139
795.947	0.2037
796.265	0.2172
796.584	0.2058
796.902	0.2218
797.22	0.205
797.538	0.2141
797.857	0.2054
798.175	0.2123
798.493	0.2379
798.811	0.2285
799.129	0.2246
799.447	0.2495
799.765	0.2431
800.083	0.2477
800.4	0.2294
800.718	0.2258
801.036	0.2252
801.353	0.2262
801.671	0.2252
801.988	0.2218
802.306	0.215
802.623	0.2099
802.941	0.2086
803.258	0.211
803.575	0.2137
803.892	0.2079
804.21	0.2027
804.527	0.1891
804.844	0.1948
805.161	0.1855
805.478	0.1925
805.795	0.1966
806.111	0.2222
806.428	0.2229
806.745	0.2347
807.062	0.2455
807.378	0.2325
807.695	0.235
808.011	0.2377
808.328	0.2192
808.644	0.2249
808.961	0.2228
809.277	0.239
809.593	0.2309
809.91	0.2307
810.226	0.2403
810.542	0.2174
810.858	0.2081
811.174	0.1954
811.49	0.2071
811.806	0.202
812.122	0.208
812.438	0.2253
812.753	0.2017
813.069	0.2062
813.385	0.1897
813.7	0.2073
814.016	0.2001
814.331	0.1898
814.647	0.2096
814.962	0.2198
815.278	0.2107
815.593	0.2353
815.908	0.2067
816.223	0.2134
816.538	0.2206
816.854	0.2124
817.169	0.2345
817.484	0.2266
817.799	0.2372
818.113	0.2282
818.428	0.25
818.743	0.2372
819.058	0.228
819.372	0.1961
819.687	0.2082
820.002	0.1997
820.316	0.2044
820.631	0.2195
820.945	0.1994
821.259	0.2169
821.574	0.2227
821.888	0.2157
822.202	0.1928
822.516	0.2056
822.83	0.2031
823.145	0.2012
823.459	0.2224
823.772	0.2343
824.086	0.2167
824.4	0.2224
824.714	0.2187
825.028	0.2028
825.341	0.1973
825.655	0.1957
825.969	0.2038
826.282	0.2301
826.596	0.2321
826.909	0.2137
827.222	0.2251
827.536	0.1963
827.849	0.2255
828.162	0.201
828.475	0.2182
828.789	0.2095
829.102	0.2223
829.415	0.2353
829.728	0.2305
830.041	0.2089
830.353	0.1866
830.666	0.2083
830.979	0.2251
831.292	0.218
831.604	0.2176
831.917	0.2242
832.229	0.2186
832.542	0.2132
832.854	0.2342
833.167	0.2086
833.479	0.2183
833.791	0.2177
834.104	0.2048
834.416	0.2212
834.728	0.2052
835.04	0.2257
835.352	0.2271
835.664	0.2187
835.976	0.1993
836.288	0.2206
836.599	0.2273
836.911	0.2145
837.223	0.2025
837.535	0.2211
837.846	0.219
838.158	0.2254
838.469	0.2175
838.781	0.2141
839.092	0.2074
839.403	0.2008
839.715	0.204
840.026	0.2117
840.337	0.2062
840.648	0.2073
840.959	0.1997
841.27	0.2112
841.581	0.2179
841.892	0.2065
842.203	0.2149
842.514	0.2116
842.825	0.2321
843.135	0.2329
843.446	0.2193
843.757	0.206
844.067	0.2145
844.378	0.2044
844.688	0.2333
844.999	0.2262
845.309	0.2186
845.619	0.2133
845.929	0.2221
846.24	0.2083
846.55	0.2309
846.86	0.2172
847.17	0.2075
847.48	0.2132
847.79	0.2257
848.1	0.2173
848.409	0.1867
848.719	0.2028
849.029	0.2036
849.338	0.1785
849.648	0.1887
849.958	0.181
850.267	0.2078
850.577	0.2034
850.886	0.2138
851.195	0.224
851.505	0.2043
851.814	0.222
852.123	0.2226
852.432	0.2145
852.741	0.1825
853.05	0.2018
853.359	0.226
853.668	0.2195
853.977	0.2296
854.286	0.2185
854.595	0.1902
854.903	0.2051
855.212	0.1913
855.521	0.2126
855.829	0.2117
856.138	0.2373
856.446	0.2004
856.754	0.2078
857.063	0.2237
857.371	0.198
857.679	0.2197
857.987	0.2106
858.296	0.2122
858.604	0.2103
858.912	0.2207
859.22	0.2156
859.527	0.2043
859.835	0.2152
860.143	0.213
860.451	0.218
860.759	0.2055
861.066	0.208
861.374	0.1956
861.681	0.2275
861.989	0.2106
862.296	0.2205
862.604	0.2247
862.911	0.222
863.218	0.2134
863.526	0.2099
863.833	0.1986
864.14	0.1973
864.447	0.1961
864.754	0.2172
865.061	0.2053
865.368	0.2015
865.675	0.1877
865.981	0.1868
866.288	0.2074
866.595	0.2041
866.901	0.2291
867.208	0.2011
867.515	0.2059
867.821	0.2014
868.127	0.1928
868.434	0.1982
868.74	0.201
869.046	0.2196
869.353	0.1899
869.659	0.1955
869.965	0.2048
870.271	0.2013
870.577	0.1846
870.883	0.1851
871.189	0.1994
871.495	0.2192
871.8	0.243
872.106	0.2086
872.412	0.2015
872.717	0.1745
873.023	0.2189
873.329	0.2023
873.634	0.2296
873.939	0.2285
874.245	0.2273
874.55	0.1902
874.855	0.2148
875.161	0.1858
875.466	0.2178
875.771	0.2077
876.076	0.1883
876.381	0.2079
876.686	0.2103
876.991	0.2278
877.295	0.1922
877.6	0.2164
877.905	0.2127
878.21	0.2263
878.514	0.2281
878.819	0.2165
879.123	0.2107
879.428	0.2193
879.732	0.1986
880.036	0.2238
880.341	0.2145
880.645	0.22
880.949	0.219
881.253	0.2122
881.557	0.2125
881.861	0.2237
882.165	0.1847
882.469	0.2242
882.773	0.1863
883.077	0.1964
883.381	0.1915
883.684	0.2088
883.988	0.1947
884.292	0.2435
884.595	0.2085
884.899	0.1956
885.202	0.235
885.505	0.2289
885.809	0.2083
886.112	0.2036
886.415	0.1749
886.718	0.2046
887.022	0.198
887.325	0.2121
887.628	0.2126
887.931	0.1698
888.233	0.1918
888.536	0.2182
888.839	0.1947
889.142	0.1561
889.444	0.2041
889.747	0.2186
890.05	0.161
890.352	0.1908
890.655	0.2401
890.957	0.2247
891.259	0.1968
891.562	0.1722
891.864	0.2123
892.166	0.1907
892.468	0.2177
892.77	0.1942
893.072	0.2002
893.374	0.2081
893.676	0.1988
893.978	0.1898
894.28	0.1976
894.582	0.1928
894.883	0.2232
895.185	0.2136
895.487	0.1937
895.788	0.1951
896.09	0.2146
896.391	0.2039
896.693	0.1983
896.994	0.1783
897.295	0.1951
897.596	0.2266
897.898	0.1884
898.199	0.2069
898.5	0.2114
898.801	0.1937
899.102	0.2043
899.403	0.1972
899.703	0.2047
900.004	0.2217
900.305	0.1835
900.606	0.1989
900.906	0.2064
901.207	0.1746
901.507	0.1927
901.808	0.2119
902.108	0.2095
902.409	0.1861
902.709	0.1932
903.009	0.1821
903.309	0.1662
903.61	0.1888
903.91	0.1495
904.21	0.2179
904.51	0.1882
904.81	0.176
905.109	0.148
905.409	0.2049
905.709	0.2234
906.009	0.1712
906.308	0.1882
906.608	0.2121
906.907	0.2099
907.207	0.1904
907.506	0.1748
907.806	0.2107
908.105	0.1688
908.404	0.1649
908.704	0.2073
909.003	0.1787
909.302	0.2387
909.601	0.2171
909.9	0.1966
910.199	0.2189
910.498	0.1817
910.797	0.2026
911.095	0.2295
911.394	0.2293
911.693	0.2452
911.991	0.2091
912.29	0.1606
912.589	0.2005
912.887	0.1762
913.185	0.1943
913.484	0.1601
913.782	0.2018
914.08	0.1859
914.378	0.2035
914.677	0.2107
914.975	0.1496
915.273	0.2182
915.571	0.1931
915.869	0.1623
916.166	0.195
916.464	0.186
916.762	0.201
917.06	0.2119
917.357	0.247
917.655	0.2064
917.952	0.2098
918.25	0.1982
918.547	0.1942
918.845	0.2104
919.142	0.2337
919.439	0.2431
919.736	0.2324
920.034	0.2019
920.331	0.1988
920.628	0.2
920.925	0.1873
921.222	0.1789
921.518	0.1782
921.815	0.1475
922.112	0.2137
922.409	0.2472
922.705	0.2303
923.002	0.2083
923.299	0.207
923.595	0.1879
923.891	0.2286
924.188	0.209
924.484	0.1877
924.78	0.21
925.077	0.1792
925.373	0.1811
925.669	0.164
925.965	0.1638
926.261	0.2244
926.557	0.2132
926.853	0.1999
927.149	0.2237
927.444	0.159
927.74	0.2182
928.036	0.1786
928.331	0.2181
928.627	0.2059
928.923	0.2338
929.218	0.1762
929.513	0.1807
929.809	0.2113
930.104	0.237
930.399	0.2007
930.694	0.1382
930.99	0.1448
931.285	0.2007
931.58	0.1866
931.875	0.1971
932.169	0.2719
932.464	0.2092
932.759	0.2655
933.054	0.1606
933.348	0.1837
933.643	0.246
933.938	0.1732
934.232	0.1929
934.527	0.1586
934.821	0.1612
935.115	0.2104
935.41	0.1891
935.704	0.2502
935.998	0.2042
936.292	0.1951
936.586	0.1563
936.88	0.2356
937.174	0.2796
937.468	0.1772
937.762	0.2315
938.056	0.2236
938.35	0.1588
938.643	0.2714
938.937	0.1734
939.23	0.1869
939.524	0.1336
939.817	0.1298
940.111	0.2635
940.404	0.1658
940.698	0.0849
940.991	0.2324
941.284	0.2792
941.577	0.1136
941.87	0.1441
942.163	0.1274
942.456	0.2099
942.749	0.1343
943.042	0.2329
943.335	0.2145
943.628	0.3681
943.92	0.2435
944.213	0.0088
944.505	0.168
944.798	0.187
945.09	0.037
945.383	0.1649
945.675	0.2885
945.967	0.1065
946.26	0.082
946.552	0.3497
946.844	0.1854
947.136	-0.0366
947.428	0.5003
947.72	0.1342
948.012	0.4484
948.304	0.1313
948.596	0.1005
948.887	0.0193
949.179	0.0445
949.471	0.1966
949.762	0.1236
950.054	0.046
950.345	0.153
950.637	0.2619
950.928	0.203
951.219	0.088
951.511	0.0489
951.802	-0.0535
952.093	0.4261
952.384	0.2643
952.675	0.3421
952.966	0.1686
953.257	0.0021
953.548	0.3535
953.839	0.2317
954.13	0.1341
954.42	0.2411
954.711	0.0095
955.001	0.3413
955.292	0.0268
955.582	0.1694
955.873	0.139
956.163	0.2653
956.454	0.1818
956.744	0.3382
957.034	0.0327
957.324	0.1644
957.614	0.0637
957.904	0.2428
958.194	0.2211
958.484	0.2019
958.774	0.1891
959.064	0.1471
959.353	0.1502
959.643	0.1519
959.933	0.3998
960.222	-0.0356
960.512	0.3127
960.801	0.1285
961.091	0.1625
961.38	0.0547
961.669	0.1805
961.959	0.2339
962.248	0.0644
962.537	-0.0097
962.826	0.3164
963.115	0.1878
963.404	0.2192
963.693	0.2719
963.982	0.4701
964.271	0.2694
964.559	0.1729
964.848	0.124
965.137	0.3309
965.425	0.1375
965.714	-0.0474
966.002	0.1649
966.291	0.1778
966.579	0.2562
966.867	0.3528
967.156	0.0279
967.444	0.2894
967.732	0.2203
968.02	0.2464
968.308	0.4117
968.596	0.2927
968.884	0.2891
969.172	0.1287
969.459	0.0283
969.747	0.019
970.035	0.2704
970.322	0.2855
970.61	-0.0426
970.898	0.2178
971.185	-0.0699
971.472	0.226
971.76	0.0509
972.047	0.0999
972.334	0.0095
972.621	0.2243
972.909	0.3489
973.196	0.5903
973.483	0.1262
973.77	0.1949
974.056	0.3544
974.343	0.3534
974.63	0.4309
974.917	0.3237
975.203	-0.0814
975.49	0.1717
975.777	0.0176
976.063	0.1657
976.35	0.1877
976.636	0.0261
976.922	0.1389
977.209	0.0433
977.495	0.2145
977.781	0.2052
978.067	-0.0501
978.353	0.2345
978.639	0.2794
978.925	0.1094
979.211	0.0035
979.497	0.2999
979.782	0.2387
980.068	0.3784
980.354	0.2168
980.639	0.1842
980.925	0.013
981.21	0.0747
981.496	0.248
981.781	0.0862
982.067	-0.0059
982.352	0.0373
982.637	0.3946
982.922	0.0025
983.207	0.1824
983.492	0.1166
983.777	0.2883
984.062	0.2043
984.347	0.0346
984.632	0.2439
984.917	0.7336
985.201	0.039
985.486	0.0042
985.771	0.2013
986.055	0.0026
986.34	0.1076
986.624	-0.1909
986.908	0.5869
987.193	0.5233
987.477	0.2149
987.761	0.2925
988.045	0.0278
988.329	0.0236
988.613	0.444
988.897	0.3649
989.181	0.4601
989.465	0.3048
989.749	0.2016
990.032	0.3196
990.316	-0.0744
990.6	0.2299
990.883	-0
991.167	0.2415
991.45	0.1662
991.734	0.0531
992.017	0.1733
992.3	0.1037
992.583	0.3599
992.867	0.0822
993.15	0.2423
993.433	0.3861
993.716	0.0299
993.999	0.7778
994.282	0.0091
994.564	0.0651
994.847	0.21
995.13	0.4928
995.413	0.2992
995.695	0.0778
995.978	0.2984
996.26	0.3618
996.543	-0.0241
996.825	-0.1176
997.107	-0.0645
997.389	-0.2123
997.672	0.2269
997.954	0.8575
998.236	-0.298
998.518	0.435
998.8	-0.1145
999.082	0.4644
999.364	-0.6229
999.645	0.2196
999.927	1.416
1000.209	0.3041
1000.491	0.3682
1000.772	0.1377
1001.054	1.307
1001.335	0.1951
1001.616	-0.0859
1001.898	0.2828
1002.179	0.2752
1002.46	0.4754
1002.742	-0.5627
1003.023	0.1421
1003.304	-0.144
1003.585	0.2957
1003.866	0.2633
1004.147	0.0693
1004.427	-0.5289
1004.708	-0.0774
1004.989	0.2765
1005.269	0.2752
1005.55	-0.3983
1005.831	0.5264
1006.111	0.0985
1006.392	0.0134
1006.672	-0
1006.952	1.5021
1007.232	0.4396
1007.513	0.0726
1007.793	-0
1008.073	0.1351
1008.353	0.2968
1008.633	0.1739
1008.913	0.1995
1009.193	0.0216
1009.472	-0
1009.752	-0
1010.032	0.2454
1010.312	-0
1010.591	-0
1010.871	0.0378
1011.15	0.8118
1011.429	0.1422
1011.709	0.1246
1011.988	0.5733
1012.267	0.6554
1012.547	1.0086
1012.826	-0
1013.105	0.8007
1013.384	-0
1013.663	-0.3512
1013.941	0.1248
1014.22	-0
1014.499	1.1182
1014.778	-0
1015.056	0.0387
1015.335	-0.3242
1015.614	-0.0563
1015.892	-0.0934
1016.17	-0
1016.449	-0.3146
1016.727	0.3781
1017.005	0.328
1017.284	0.328
1017.562	0.328
