Data from G6_V1_T10_Absorbance_15-03-47-489.txt Node
Date: Mon Sep 09 15:03:47 IST 2024
User: Optics Lab
Spectrometer: FLMS06900
Trigger mode: 0
Integration Time (sec): 6.000000E-3
Scans to average: 1
Electric dark correction enabled: true
Nonlinearity correction enabled: false
Boxcar width: 0
XAxis mode: Wavelengths
Number of Pixels in Spectrum: 2048
>>>>>Begin Spectral Data<<<<<
339.78	-0
340.159	-0
340.537	-0
340.915	0.1356
341.293	0.1294
341.671	-0
342.049	0.5679
342.427	-0
342.805	0.3666
343.183	-1.055
343.561	0.3817
343.939	-0.0489
344.317	-0
344.694	-0
345.072	-0.1331
345.45	-0
345.827	0.2256
346.205	1.5223
346.583	0.6213
346.96	-0
347.338	-0.1477
347.715	0.451
348.092	-0
348.47	-0
348.847	1.2827
349.224	0.0158
349.601	0.389
349.979	-0.1183
350.356	-0.1023
350.733	-0.5305
351.11	0.1334
351.487	0.1153
351.864	-0
352.241	-1.6882
352.618	0.7211
352.995	-0.6038
353.372	-0.4737
353.748	-0
354.125	0.0072
354.502	-0
354.878	0.3257
355.255	-0.0517
355.632	1.8582
356.008	-0.3391
356.385	-0.2015
356.761	-0.4165
357.137	0.6138
357.514	0.0194
357.89	-0
358.266	-0.763
358.643	0.3152
359.019	0.0305
359.395	-0.9141
359.771	-0
360.147	-0.2557
360.523	-0.5305
360.899	-0.1769
361.275	-0.6397
361.651	0.2327
362.027	-0.3776
362.403	-0.4086
362.779	-0
363.155	-0
363.53	0.0527
363.906	0.0127
364.282	0.8787
364.657	0.0362
365.033	-0.3177
365.408	0.0687
365.784	0.0014
366.159	0.0212
366.535	-0.129
366.91	-0.0392
367.285	-0.065
367.66	-0.0601
368.036	-0.9108
368.411	0.1065
368.786	-0.0856
369.161	0.2164
369.536	0.2027
369.911	-0.6032
370.286	-0.672
370.661	-0.1898
371.036	-0.2192
371.411	-0.6042
371.786	-0.015
372.16	-0.2663
372.535	-0
372.91	0.1036
373.285	0.3875
373.659	0.039
374.034	-0.4305
374.408	-0.2201
374.783	0.1332
375.157	1.2994
375.532	0.1247
375.906	-1.8673
376.28	-0.2121
376.655	-0.2087
377.029	0.01
377.403	0.0806
377.777	0.097
378.151	-0.2023
378.525	-0.1006
378.899	-0.0776
379.273	-0.0694
379.647	-0.0045
380.021	-0.1863
380.395	-0.1187
380.769	0.0498
381.143	0.0697
381.517	0.0565
381.89	0.1756
382.264	-0.0727
382.638	-0.2587
383.011	-0.0883
383.385	0.1017
383.758	0.0681
384.132	-0.0585
384.505	-0.2919
384.878	-0.0684
385.252	-0.1116
385.625	-0.079
385.998	0.0058
386.372	-0.1211
386.745	0.039
387.118	-0.0357
387.491	-0.0951
387.864	-0.0462
388.237	-0.1384
388.61	-0.0187
388.983	0.0587
389.356	0.0124
389.729	0.0611
390.101	-0.0274
390.474	-0.0125
390.847	-0.0137
391.219	0.0945
391.592	-0.1083
391.965	-0.1948
392.337	0.0404
392.71	-0.085
393.082	-0.0268
393.455	-0.0779
393.827	-0.0021
394.199	0.0362
394.572	0.033
394.944	-0.0542
395.316	-0.0044
395.688	0.0767
396.06	-0.0656
396.433	-0.1638
396.805	-0.1764
397.177	-0.0559
397.549	0.051
397.92	0.0569
398.292	-0.0739
398.664	-0.0871
399.036	0.0434
399.408	-0.0575
399.779	-0.1091
400.151	0.0376
400.523	0.0759
400.894	0.0253
401.266	0.0448
401.637	-0.0407
402.009	-0.0588
402.38	0.0834
402.752	-0.022
403.123	0.0205
403.494	0.0387
403.866	0.1211
404.237	0.0373
404.608	0.0312
404.979	-0.1044
405.35	-0.0096
405.721	0.0224
406.092	0.0109
406.463	-0.0084
406.834	0.0702
407.205	0.0042
407.576	0.0043
407.947	-0.028
408.317	-0.0771
408.688	-0.0011
409.059	-0.0295
409.429	-0.0464
409.8	-0.0141
410.171	0.0472
410.541	0.0171
410.912	0.005
411.282	0.0088
411.652	0.0198
412.023	-0.0248
412.393	-0.0284
412.763	-0.0364
413.133	0.027
413.504	-0.006
413.874	0.0197
414.244	-0.0019
414.614	-0.0341
414.984	-0.0552
415.354	-0.0117
415.724	0.0153
416.094	0.0333
416.463	-0.01
416.833	-0.034
417.203	-0.0068
417.573	0.027
417.942	0.0128
418.312	-0.0187
418.682	-0.0286
419.051	-0.0521
419.421	0.057
419.79	0.009
420.159	-0.0332
420.529	0.0339
420.898	0.0159
421.267	0.0024
421.637	0.0248
422.006	-0.0201
422.375	0.0469
422.744	0.015
423.113	0.0299
423.482	0.0312
423.851	-0.0029
424.22	-0.021
424.589	0.0209
424.958	0.0056
425.327	0.0157
425.695	0.0251
426.064	0.0008
426.433	0.0341
426.802	0.0403
427.17	0.0159
427.539	-0.0232
427.907	0.0121
428.276	0.0001
428.644	-0.0031
429.013	-0.0081
429.381	0.0093
429.749	-0.0093
430.118	-0.0177
430.486	0.0186
430.854	-0.0383
431.222	0.0053
431.59	0.0078
431.958	0.0422
432.326	0.0494
432.694	-0.0075
433.062	0.0315
433.43	-0.01
433.798	0.0179
434.166	0.0408
434.533	0.004
434.901	-0.0092
435.269	-0.0267
435.636	-0.0332
436.004	0.0039
436.372	-0.012
436.739	0.0208
437.107	0.0356
437.474	0.0067
437.841	0.026
438.209	0.0312
438.576	0.0184
438.943	-0.0238
439.31	0.038
439.678	-0.0097
440.045	0.0102
440.412	0.0127
440.779	0.0057
441.146	0.0087
441.513	0.0363
441.88	0.0271
442.247	0.0051
442.613	0.0061
442.98	0.0291
443.347	0.0114
443.714	0.0174
444.08	0.0247
444.447	0.023
444.813	0.0027
445.18	0.0224
445.546	0.0173
445.913	0.0299
446.279	0.0201
446.646	-0.0168
447.012	0.0276
447.378	0.0216
447.744	0.0235
448.111	0.0079
448.477	0.0185
448.843	0.0267
449.209	0.0269
449.575	-0.0081
449.941	0.009
450.307	0.0338
450.673	-0.0036
451.039	0.0104
451.404	0.0287
451.77	0.0109
452.136	0.0211
452.502	0.0329
452.867	0.0212
453.233	0.0269
453.598	0.0074
453.964	0.0239
454.329	0.0329
454.695	0.0105
455.06	0.0221
455.425	0.0238
455.791	0.0279
456.156	0.028
456.521	0.0305
456.886	0.0181
457.251	0.0252
457.616	0.0116
457.981	0.0173
458.346	0.0207
458.711	0.0184
459.076	0.0039
459.441	0.0093
459.806	0.0265
460.171	0.0096
460.535	0.0183
460.9	0.0173
461.265	0.0164
461.629	0.0291
461.994	0.0293
462.358	0.0086
462.723	0.0359
463.087	0.0556
463.452	0.0098
463.816	0.0325
464.18	0.0136
464.544	0.0304
464.909	0.0418
465.273	0.0028
465.637	0.0185
466.001	0.0139
466.365	0.0213
466.729	0.0313
467.093	0.0239
467.457	0.0416
467.821	0.0372
468.185	0.0266
468.548	0.0297
468.912	0.0494
469.276	0.0155
469.639	0.0276
470.003	0.0016
470.367	0.0135
470.73	0.015
471.094	0.0057
471.457	0.0277
471.82	0.0279
472.184	0.0441
472.547	0.0429
472.91	0.0224
473.274	0.0234
473.637	0.0374
474	0.0165
474.363	0.0231
474.726	0.0322
475.089	0.0391
475.452	0.026
475.815	0.0412
476.178	0.0434
476.54	0.0281
476.903	0.034
477.266	0.0498
477.629	0.015
477.991	0.0318
478.354	0.0246
478.716	0.0249
479.079	0.0296
479.441	0.0442
479.804	0.0337
480.166	0.0385
480.529	0.0408
480.891	0.0262
481.253	0.0194
481.615	0.0326
481.978	0.0266
482.34	0.0429
482.702	0.0296
483.064	0.0201
483.426	0.018
483.788	0.027
484.15	0.0327
484.512	0.031
484.873	0.0306
485.235	0.0299
485.597	0.0287
485.959	0.0373
486.32	0.0349
486.682	0.0383
487.043	0.0238
487.405	0.0201
487.766	0.0271
488.128	0.0305
488.489	0.0226
488.85	0.0274
489.212	0.0386
489.573	0.0234
489.934	0.0358
490.295	0.0392
490.657	0.0433
491.018	0.036
491.379	0.0288
491.74	0.0307
492.101	0.034
492.461	0.0387
492.822	0.0299
493.183	0.043
493.544	0.021
493.905	0.0146
494.265	0.0245
494.626	0.0252
494.987	0.0385
495.347	0.0287
495.708	0.0315
496.068	0.0265
496.429	0.034
496.789	0.0403
497.149	0.0443
497.509	0.0364
497.87	0.0427
498.23	0.0288
498.59	0.0274
498.95	0.0494
499.31	0.0386
499.67	0.0473
500.03	0.0359
500.39	0.0359
500.75	0.0296
501.11	0.0352
501.47	0.0264
501.83	0.0347
502.189	0.0288
502.549	0.0371
502.909	0.0296
503.268	0.0163
503.628	0.0333
503.987	0.0323
504.347	0.0452
504.706	0.0406
505.065	0.0414
505.425	0.0303
505.784	0.0467
506.143	0.0451
506.502	0.0448
506.862	0.0456
507.221	0.033
507.58	0.0351
507.939	0.0334
508.298	0.0241
508.657	0.0312
509.015	0.046
509.374	0.0432
509.733	0.0374
510.092	0.0383
510.451	0.0451
510.809	0.0503
511.168	0.046
511.526	0.0504
511.885	0.0305
512.243	0.0435
512.602	0.0443
512.96	0.0421
513.319	0.0342
513.677	0.0421
514.035	0.038
514.393	0.0446
514.751	0.0422
515.11	0.031
515.468	0.0376
515.826	0.0287
516.184	0.0475
516.542	0.0367
516.9	0.0417
517.257	0.0392
517.615	0.044
517.973	0.0347
518.331	0.0367
518.688	0.0425
519.046	0.0419
519.404	0.0412
519.761	0.0399
520.119	0.0413
520.476	0.0351
520.834	0.0418
521.191	0.0428
521.548	0.0408
521.906	0.0329
522.263	0.0437
522.62	0.0366
522.977	0.0447
523.334	0.036
523.691	0.047
524.048	0.0485
524.405	0.0386
524.762	0.0516
525.119	0.0539
525.476	0.0496
525.833	0.0449
526.189	0.0574
526.546	0.0466
526.903	0.0416
527.259	0.0443
527.616	0.0423
527.973	0.0436
528.329	0.0336
528.685	0.0292
529.042	0.0453
529.398	0.0355
529.755	0.0495
530.111	0.0465
530.467	0.0391
530.823	0.0465
531.179	0.0394
531.535	0.0432
531.891	0.0416
532.247	0.0372
532.603	0.0467
532.959	0.0519
533.315	0.0524
533.671	0.0486
534.027	0.0521
534.382	0.0529
534.738	0.0436
535.094	0.0488
535.449	0.0447
535.805	0.0512
536.16	0.0438
536.516	0.0479
536.871	0.0411
537.226	0.0356
537.582	0.0376
537.937	0.0397
538.292	0.0446
538.647	0.0475
539.003	0.049
539.358	0.0623
539.713	0.0619
540.068	0.0494
540.423	0.0493
540.778	0.0474
541.132	0.0341
541.487	0.0423
541.842	0.0346
542.197	0.0369
542.552	0.0396
542.906	0.0403
543.261	0.0333
543.615	0.0465
543.97	0.0584
544.324	0.0519
544.679	0.058
545.033	0.06
545.387	0.0533
545.742	0.0537
546.096	0.0582
546.45	0.0566
546.804	0.0502
547.158	0.0535
547.512	0.0468
547.866	0.0416
548.22	0.0361
548.574	0.0493
548.928	0.0512
549.282	0.0397
549.636	0.0454
549.99	0.0492
550.343	0.0586
550.697	0.0526
551.05	0.0544
551.404	0.0519
551.758	0.0417
552.111	0.0459
552.464	0.0487
552.818	0.0448
553.171	0.0572
553.524	0.0544
553.878	0.0533
554.231	0.0478
554.584	0.056
554.937	0.0545
555.29	0.0609
555.643	0.0559
555.996	0.0643
556.349	0.0516
556.702	0.056
557.055	0.0623
557.408	0.056
557.76	0.0628
558.113	0.0646
558.466	0.0582
558.818	0.0679
559.171	0.0535
559.523	0.0497
559.876	0.0568
560.228	0.0559
560.581	0.0698
560.933	0.0602
561.285	0.0702
561.638	0.0624
561.99	0.0564
562.342	0.0627
562.694	0.0681
563.046	0.0684
563.398	0.0677
563.75	0.0723
564.102	0.0588
564.454	0.0582
564.806	0.0718
565.158	0.0682
565.509	0.0639
565.861	0.0697
566.213	0.0621
566.564	0.0636
566.916	0.0584
567.267	0.0631
567.619	0.0586
567.97	0.077
568.322	0.0737
568.673	0.0705
569.024	0.0682
569.376	0.0749
569.727	0.0646
570.078	0.059
570.429	0.0655
570.78	0.0653
571.131	0.0777
571.482	0.0688
571.833	0.0682
572.184	0.0638
572.535	0.0743
572.885	0.0688
573.236	0.0694
573.587	0.0757
573.938	0.0764
574.288	0.0788
574.639	0.07
574.989	0.0728
575.34	0.0822
575.69	0.08
576.04	0.0703
576.391	0.0718
576.741	0.0799
577.091	0.0785
577.442	0.0758
577.792	0.0701
578.142	0.0741
578.492	0.0721
578.842	0.0752
579.192	0.0854
579.542	0.0884
579.892	0.0831
580.241	0.0829
580.591	0.086
580.941	0.0816
581.291	0.0937
581.64	0.0927
581.99	0.0869
582.339	0.0829
582.689	0.0884
583.038	0.0845
583.388	0.0852
583.737	0.0873
584.086	0.09
584.436	0.0758
584.785	0.0876
585.134	0.0876
585.483	0.0778
585.832	0.0726
586.181	0.0831
586.53	0.0915
586.879	0.0815
587.228	0.0914
587.577	0.0884
587.926	0.0873
588.275	0.0862
588.623	0.0859
588.972	0.0983
589.321	0.099
589.669	0.0922
590.018	0.091
590.366	0.0916
590.715	0.0949
591.063	0.0973
591.412	0.0917
591.76	0.0956
592.108	0.0999
592.456	0.1061
592.805	0.102
593.153	0.0971
593.501	0.09
593.849	0.0832
594.197	0.0965
594.545	0.1034
594.893	0.1014
595.24	0.103
595.588	0.1059
595.936	0.1171
596.284	0.1115
596.631	0.1091
596.979	0.1145
597.327	0.1173
597.674	0.1221
598.022	0.1141
598.369	0.11
598.716	0.1057
599.064	0.1031
599.411	0.1151
599.758	0.1166
600.105	0.1041
600.453	0.1103
600.8	0.1198
601.147	0.1136
601.494	0.1153
601.841	0.1057
602.188	0.114
602.535	0.1271
602.881	0.1177
603.228	0.115
603.575	0.1169
603.922	0.118
604.268	0.1239
604.615	0.1157
604.961	0.1196
605.308	0.1181
605.654	0.126
606.001	0.1286
606.347	0.1306
606.693	0.1255
607.04	0.1281
607.386	0.1284
607.732	0.1241
608.078	0.1396
608.424	0.1299
608.77	0.133
609.116	0.1408
609.462	0.1325
609.808	0.1359
610.154	0.1346
610.5	0.1203
610.846	0.1341
611.191	0.1237
611.537	0.1243
611.883	0.1387
612.228	0.1422
612.574	0.1405
612.919	0.14
613.265	0.1342
613.61	0.138
613.955	0.1336
614.301	0.1431
614.646	0.1366
614.991	0.1364
615.336	0.1387
615.681	0.1427
616.026	0.1426
616.371	0.1443
616.716	0.1414
617.061	0.1322
617.406	0.1357
617.751	0.1377
618.096	0.1429
618.44	0.147
618.785	0.1539
619.13	0.1379
619.474	0.1428
619.819	0.135
620.163	0.1424
620.508	0.1364
620.852	0.1498
621.197	0.1482
621.541	0.1489
621.885	0.1485
622.229	0.1435
622.574	0.1475
622.918	0.148
623.262	0.1446
623.606	0.1448
623.95	0.1391
624.294	0.1555
624.638	0.1459
624.981	0.1535
625.325	0.1505
625.669	0.1459
626.013	0.1407
626.356	0.1427
626.7	0.1491
627.043	0.1489
627.387	0.154
627.73	0.1488
628.074	0.1486
628.417	0.1529
628.761	0.1546
629.104	0.1391
629.447	0.1446
629.79	0.1427
630.133	0.1502
630.476	0.1556
630.819	0.1512
631.162	0.162
631.505	0.1565
631.848	0.1526
632.191	0.1492
632.534	0.1531
632.877	0.1534
633.219	0.1534
633.562	0.1481
633.905	0.1575
634.247	0.1534
634.59	0.1563
634.932	0.1488
635.275	0.1492
635.617	0.1486
635.959	0.1571
636.302	0.1506
636.644	0.1529
636.986	0.1617
637.328	0.1622
637.67	0.1638
638.012	0.1723
638.354	0.1698
638.696	0.1702
639.038	0.1693
639.38	0.1635
639.722	0.1638
640.064	0.1663
640.405	0.1753
640.747	0.1829
641.089	0.1678
641.43	0.167
641.772	0.1786
642.113	0.1786
642.455	0.1768
642.796	0.1691
643.137	0.1598
643.479	0.1698
643.82	0.177
644.161	0.1818
644.502	0.1829
644.843	0.1905
645.185	0.177
645.526	0.1836
645.866	0.1774
646.207	0.1914
646.548	0.1875
646.889	0.1962
647.23	0.1948
647.571	0.1986
647.911	0.197
648.252	0.1872
648.592	0.206
648.933	0.2033
649.273	0.1957
649.614	0.2034
649.954	0.2058
650.295	0.2033
650.635	0.203
650.975	0.2027
651.315	0.2107
651.656	0.2119
651.996	0.2047
652.336	0.203
652.676	0.2116
653.016	0.2118
653.356	0.2165
653.695	0.2171
654.035	0.2088
654.375	0.2009
654.715	0.2159
655.054	0.2203
655.394	0.233
655.734	0.2255
656.073	0.2123
656.413	0.2373
656.752	0.2342
657.091	0.2269
657.431	0.2297
657.77	0.2238
658.109	0.23
658.449	0.2245
658.788	0.2254
659.127	0.226
659.466	0.2167
659.805	0.2282
660.144	0.2309
660.483	0.2301
660.822	0.2437
661.16	0.2313
661.499	0.2279
661.838	0.2349
662.177	0.2383
662.515	0.2447
662.854	0.2348
663.192	0.2327
663.531	0.2222
663.869	0.2254
664.208	0.2284
664.546	0.2318
664.884	0.2291
665.222	0.2398
665.561	0.2407
665.899	0.2422
666.237	0.254
666.575	0.2566
666.913	0.2501
667.251	0.2476
667.589	0.251
667.927	0.2353
668.264	0.2381
668.602	0.2333
668.94	0.2339
669.278	0.2338
669.615	0.2338
669.953	0.2212
670.29	0.2199
670.628	0.227
670.965	0.2209
671.303	0.2211
671.64	0.2226
671.977	0.2324
672.314	0.2478
672.652	0.2393
672.989	0.2281
673.326	0.2258
673.663	0.228
674	0.2294
674.337	0.2361
674.674	0.2292
675.01	0.2236
675.347	0.214
675.684	0.2113
676.021	0.1997
676.357	0.1955
676.694	0.2007
677.031	0.1782
677.367	0.1768
677.704	0.1875
678.04	0.1864
678.376	0.1846
678.713	0.1756
679.049	0.1835
679.385	0.1828
679.721	0.18
680.057	0.1887
680.393	0.1832
680.73	0.1735
681.065	0.1871
681.401	0.1745
681.737	0.171
682.073	0.169
682.409	0.1642
682.745	0.1587
683.08	0.1543
683.416	0.1492
683.752	0.1479
684.087	0.1363
684.423	0.1395
684.758	0.1338
685.093	0.1323
685.429	0.135
685.764	0.1293
686.099	0.1302
686.435	0.129
686.77	0.1264
687.105	0.122
687.44	0.1284
687.775	0.1172
688.11	0.1191
688.445	0.1231
688.78	0.1258
689.114	0.1249
689.449	0.1117
689.784	0.1144
690.119	0.1106
690.453	0.1146
690.788	0.1105
691.122	0.1077
691.457	0.108
691.791	0.0977
692.126	0.0961
692.46	0.1019
692.794	0.1034
693.128	0.0872
693.463	0.0896
693.797	0.0885
694.131	0.0948
694.465	0.0868
694.799	0.0928
695.133	0.0996
695.467	0.083
695.801	0.0887
696.134	0.094
696.468	0.088
696.802	0.0869
697.135	0.093
697.469	0.0864
697.803	0.0901
698.136	0.0826
698.47	0.0892
698.803	0.0844
699.136	0.0805
699.47	0.0714
699.803	0.0687
700.136	0.0706
700.469	0.0609
700.802	0.0694
701.135	0.0796
701.468	0.0763
701.801	0.0705
702.134	0.0857
702.467	0.0833
702.8	0.0604
703.133	0.0813
703.465	0.0769
703.798	0.0682
704.131	0.0632
704.463	0.067
704.796	0.0739
705.128	0.0705
705.461	0.0723
705.793	0.0594
706.125	0.0566
706.458	0.066
706.79	0.0673
707.122	0.0685
707.454	0.066
707.786	0.0582
708.118	0.0608
708.45	0.0803
708.782	0.0735
709.114	0.0642
709.446	0.0635
709.778	0.0721
710.11	0.0725
710.441	0.0787
710.773	0.0673
711.104	0.0691
711.436	0.0706
711.768	0.0674
712.099	0.0643
712.43	0.059
712.762	0.0614
713.093	0.0714
713.424	0.0652
713.755	0.0581
714.087	0.0589
714.418	0.0636
714.749	0.069
715.08	0.0689
715.411	0.06
715.742	0.053
716.072	0.0622
716.403	0.0658
716.734	0.0658
717.065	0.0679
717.395	0.0605
717.726	0.0586
718.057	0.0629
718.387	0.059
718.718	0.0707
719.048	0.0624
719.378	0.0705
719.709	0.0677
720.039	0.071
720.369	0.0621
720.699	0.0579
721.029	0.0569
721.359	0.0604
721.689	0.0668
722.019	0.0575
722.349	0.0618
722.679	0.0536
723.009	0.0568
723.339	0.0661
723.669	0.0681
723.998	0.0799
724.328	0.0762
724.657	0.0631
724.987	0.0578
725.316	0.0659
725.646	0.0624
725.975	0.0665
726.305	0.0713
726.634	0.0645
726.963	0.0599
727.292	0.0682
727.621	0.0633
727.95	0.0726
728.279	0.0639
728.608	0.067
728.937	0.0686
729.266	0.0706
729.595	0.0822
729.924	0.0723
730.253	0.0587
730.581	0.0658
730.91	0.0586
731.238	0.0653
731.567	0.0731
731.896	0.0702
732.224	0.0648
732.552	0.0595
732.881	0.0615
733.209	0.0649
733.537	0.0663
733.865	0.0626
734.194	0.0565
734.522	0.0515
734.85	0.0545
735.178	0.0668
735.506	0.0535
735.833	0.0691
736.161	0.0779
736.489	0.0722
736.817	0.0707
737.144	0.0735
737.472	0.0539
737.8	0.0682
738.127	0.0767
738.455	0.0745
738.782	0.071
739.11	0.0677
739.437	0.0669
739.764	0.0624
740.091	0.0686
740.419	0.0709
740.746	0.0639
741.073	0.0669
741.4	0.0729
741.727	0.0621
742.054	0.0603
742.381	0.056
742.708	0.0618
743.034	0.0647
743.361	0.0666
743.688	0.0762
744.014	0.078
744.341	0.0717
744.668	0.0621
744.994	0.068
745.321	0.0616
745.647	0.0641
745.973	0.0614
746.3	0.0687
746.626	0.0609
746.952	0.0562
747.278	0.0669
747.604	0.0597
747.93	0.0624
748.256	0.0676
748.582	0.0679
748.908	0.0591
749.234	0.0582
749.56	0.0792
749.885	0.0686
750.211	0.0725
750.537	0.0762
750.862	0.0784
751.188	0.0611
751.513	0.0684
751.839	0.0676
752.164	0.0673
752.49	0.0602
752.815	0.063
753.14	0.0522
753.465	0.0508
753.79	0.0482
754.116	0.0593
754.441	0.06
754.766	0.0587
755.091	0.0605
755.415	0.0614
755.74	0.0496
756.065	0.0584
756.39	0.0673
756.714	0.0752
757.039	0.0758
757.364	0.0795
757.688	0.0859
758.013	0.0822
758.337	0.0756
758.662	0.0694
758.986	0.0676
759.31	0.0856
759.634	0.071
759.959	0.0683
760.283	0.0697
760.607	0.0632
760.931	0.0593
761.255	0.0598
761.579	0.0619
761.903	0.0512
762.226	0.0611
762.55	0.0638
762.874	0.0715
763.198	0.0494
763.521	0.0751
763.845	0.0712
764.168	0.0751
764.492	0.0722
764.815	0.068
765.139	0.0661
765.462	0.0701
765.785	0.071
766.109	0.0658
766.432	0.0598
766.755	0.071
767.078	0.0682
767.401	0.0724
767.724	0.0685
768.047	0.0608
768.37	0.0734
768.693	0.0685
769.015	0.065
769.338	0.0639
769.661	0.0781
769.983	0.0672
770.306	0.0784
770.628	0.0622
770.951	0.0627
771.273	0.0516
771.596	0.0603
771.918	0.0603
772.24	0.0658
772.562	0.0573
772.885	0.0644
773.207	0.0494
773.529	0.0588
773.851	0.0532
774.173	0.0708
774.495	0.0739
774.817	0.0721
775.138	0.0685
775.46	0.0753
775.782	0.0767
776.103	0.0662
776.425	0.0655
776.747	0.0705
777.068	0.0625
777.39	0.0623
777.711	0.0633
778.032	0.0687
778.354	0.0558
778.675	0.0758
778.996	0.0685
779.317	0.0693
779.638	0.0729
779.959	0.0745
780.28	0.0575
780.601	0.0637
780.922	0.0581
781.243	0.0687
781.564	0.0592
781.885	0.066
782.205	0.0558
782.526	0.0336
782.847	0.06
783.167	0.0526
783.488	0.0611
783.808	0.0535
784.128	0.0524
784.449	0.0585
784.769	0.05
785.089	0.0637
785.409	0.0584
785.73	0.0733
786.05	0.0466
786.37	0.0712
786.69	0.0609
787.01	0.0664
787.329	0.0626
787.649	0.073
787.969	0.0532
788.289	0.0611
788.608	0.0618
788.928	0.0623
789.248	0.069
789.567	0.0743
789.887	0.0708
790.206	0.0582
790.525	0.0514
790.845	0.0631
791.164	0.0592
791.483	0.0616
791.802	0.0659
792.121	0.0599
792.44	0.0706
792.76	0.0659
793.078	0.0822
793.397	0.0819
793.716	0.0675
794.035	0.0754
794.354	0.0594
794.672	0.0691
794.991	0.0656
795.31	0.0688
795.628	0.0562
795.947	0.0676
796.265	0.0675
796.584	0.0675
796.902	0.061
797.22	0.0461
797.538	0.0551
797.857	0.0581
798.175	0.0651
798.493	0.0793
798.811	0.0715
799.129	0.0912
799.447	0.0885
799.765	0.0842
800.083	0.0889
800.4	0.087
800.718	0.0638
801.036	0.0672
801.353	0.0695
801.671	0.062
801.988	0.0703
802.306	0.0627
802.623	0.0539
802.941	0.0696
803.258	0.0624
803.575	0.0703
803.892	0.0492
804.21	0.0579
804.527	0.0418
804.844	0.0514
805.161	0.0431
805.478	0.0435
805.795	0.0428
806.111	0.0536
806.428	0.0583
806.745	0.0819
807.062	0.0857
807.378	0.08
807.695	0.0765
808.011	0.0787
808.328	0.0725
808.644	0.0673
808.961	0.065
809.277	0.0807
809.593	0.0713
809.91	0.0775
810.226	0.0799
810.542	0.0705
810.858	0.066
811.174	0.0545
811.49	0.0587
811.806	0.0577
812.122	0.0622
812.438	0.0549
812.753	0.0529
813.069	0.0543
813.385	0.039
813.7	0.0537
814.016	0.049
814.331	0.0519
814.647	0.056
814.962	0.0527
815.278	0.079
815.593	0.0761
815.908	0.089
816.223	0.0696
816.538	0.0791
816.854	0.0842
817.169	0.0645
817.484	0.0872
817.799	0.0887
818.113	0.0766
818.428	0.1001
818.743	0.0902
819.058	0.0792
819.372	0.0695
819.687	0.0536
820.002	0.064
820.316	0.0551
820.631	0.0718
820.945	0.0738
821.259	0.0697
821.574	0.0858
821.888	0.0564
822.202	0.0486
822.516	0.0562
822.83	0.0479
823.145	0.0549
823.459	0.0762
823.772	0.0841
824.086	0.0656
824.4	0.0734
824.714	0.0646
825.028	0.063
825.341	0.0536
825.655	0.0621
825.969	0.052
826.282	0.0739
826.596	0.0742
826.909	0.0674
827.222	0.0626
827.536	0.0653
827.849	0.0662
828.162	0.0596
828.475	0.0673
828.789	0.0618
829.102	0.0712
829.415	0.0779
829.728	0.0831
830.041	0.074
830.353	0.0577
830.666	0.0765
830.979	0.0913
831.292	0.0781
831.604	0.0724
831.917	0.0756
832.229	0.0711
832.542	0.0695
832.854	0.0853
833.167	0.0681
833.479	0.0667
833.791	0.0665
834.104	0.0517
834.416	0.0684
834.728	0.0704
835.04	0.0793
835.352	0.0754
835.664	0.0722
835.976	0.0706
836.288	0.0758
836.599	0.081
836.911	0.075
837.223	0.0773
837.535	0.0592
837.846	0.0718
838.158	0.0897
838.469	0.0929
838.781	0.0866
839.092	0.0611
839.403	0.0679
839.715	0.0677
840.026	0.0792
840.337	0.081
840.648	0.063
840.959	0.0607
841.27	0.0813
841.581	0.0633
841.892	0.0683
842.203	0.057
842.514	0.0528
842.825	0.0767
843.135	0.083
843.446	0.0773
843.757	0.0854
844.067	0.0647
844.378	0.0761
844.688	0.0633
844.999	0.0817
845.309	0.0699
845.619	0.0857
845.929	0.0857
846.24	0.0773
846.55	0.0831
846.86	0.09
847.17	0.0759
847.48	0.065
847.79	0.0671
848.1	0.0785
848.409	0.0645
848.719	0.0833
849.029	0.0659
849.338	0.0573
849.648	0.0641
849.958	0.0553
850.267	0.0696
850.577	0.074
850.886	0.0798
851.195	0.098
851.505	0.0815
851.814	0.0887
852.123	0.0731
852.432	0.0832
852.741	0.0618
853.05	0.0726
853.359	0.0935
853.668	0.085
853.977	0.0726
854.286	0.0689
854.595	0.0579
854.903	0.0693
855.212	0.0684
855.521	0.068
855.829	0.0775
856.138	0.0576
856.446	0.0678
856.754	0.0708
857.063	0.0736
857.371	0.0559
857.679	0.0816
857.987	0.0834
858.296	0.0881
858.604	0.0774
858.912	0.0753
859.22	0.0783
859.527	0.0683
859.835	0.0746
860.143	0.0877
860.451	0.0914
860.759	0.0742
861.066	0.0675
861.374	0.0499
861.681	0.0813
861.989	0.0997
862.296	0.0783
862.604	0.0833
862.911	0.0799
863.218	0.0917
863.526	0.0794
863.833	0.0648
864.14	0.0708
864.447	0.0783
864.754	0.0678
865.061	0.0695
865.368	0.0548
865.675	0.0789
865.981	0.0663
866.288	0.0909
866.595	0.0801
866.901	0.0715
867.208	0.0834
867.515	0.0516
867.821	0.0438
868.127	0.0701
868.434	0.0682
868.74	0.0642
869.046	0.0649
869.353	0.0572
869.659	0.0632
869.965	0.068
870.271	0.0843
870.577	0.066
870.883	0.0627
871.189	0.0826
871.495	0.0795
871.8	0.1053
872.106	0.046
872.412	0.0762
872.717	0.0549
873.023	0.0715
873.329	0.0823
873.634	0.081
873.939	0.0879
874.245	0.1105
874.55	0.0594
874.855	0.0598
875.161	0.0487
875.466	0.0823
875.771	0.0677
876.076	0.072
876.381	0.0695
876.686	0.0697
876.991	0.0529
877.295	0.0662
877.6	0.0853
877.905	0.0732
878.21	0.0719
878.514	0.0762
878.819	0.0967
879.123	0.0887
879.428	0.077
879.732	0.0823
880.036	0.0731
880.341	0.0606
880.645	0.12
880.949	0.0836
881.253	0.0973
881.557	0.0865
881.861	0.0945
882.165	0.057
882.469	0.0723
882.773	0.0482
883.077	0.0703
883.381	0.0784
883.684	0.0751
883.988	0.0664
884.292	0.0944
884.595	0.0725
884.899	0.0759
885.202	0.1069
885.505	0.0812
885.809	0.0835
886.112	0.0491
886.415	0.0493
886.718	0.0764
887.022	0.0762
887.325	0.0623
887.628	0.0708
887.931	0.0641
888.233	0.0423
888.536	0.0691
888.839	0.0546
889.142	0.033
889.444	0.0582
889.747	0.0574
890.05	0.0504
890.352	0.0646
890.655	0.0713
890.957	0.0716
891.259	0.0572
891.562	0.0637
891.864	0.0536
892.166	0.0475
892.468	0.0649
892.77	0.0652
893.072	0.0577
893.374	0.0616
893.676	0.0599
893.978	0.0746
894.28	0.0603
894.582	0.0802
894.883	0.0808
895.185	0.0575
895.487	0.0546
895.788	0.0885
896.09	0.0836
896.391	0.0843
896.693	0.0646
896.994	0.0776
897.295	0.0646
897.596	0.0714
897.898	0.0544
898.199	0.0719
898.5	0.0682
898.801	0.0692
899.102	0.0809
899.403	0.0713
899.703	0.0804
900.004	0.0938
900.305	0.0505
900.606	0.0689
900.906	0.0631
901.207	0.0516
901.507	0.0693
901.808	0.0748
902.108	0.0752
902.409	0.0799
902.709	0.0787
903.009	0.049
903.309	0.0469
903.61	0.0586
903.91	0.0129
904.21	0.0534
904.51	0.033
904.81	0.0573
905.109	0.0511
905.409	0.1005
905.709	0.0623
906.009	0.0719
906.308	0.0508
906.608	0.059
906.907	0.0535
907.207	0.0315
907.506	0.0534
907.806	0.0864
908.105	0.065
908.404	0.0594
908.704	0.0765
909.003	0.0726
909.302	0.0916
909.601	0.0804
909.9	0.035
910.199	0.0555
910.498	0.057
910.797	0.0955
911.095	0.103
911.394	0.0839
911.693	0.0915
911.991	0.0804
912.29	0.0088
912.589	0.0309
912.887	0.054
913.185	0.058
913.484	0.0424
913.782	0.0693
914.08	0.0647
914.378	0.0719
914.677	0.0608
914.975	0.034
915.273	0.0689
915.571	0.0603
915.869	0.0505
916.166	0.0773
916.464	0.0716
916.762	0.0398
917.06	0.0681
917.357	0.067
917.655	0.0648
917.952	0.0658
918.25	0.0704
918.547	0.0378
918.845	0.0752
919.142	0.0973
919.439	0.0857
919.736	0.0734
920.034	0.0457
920.331	0.094
920.628	0.0725
920.925	0.0587
921.222	0.0444
921.518	0.0545
921.815	0.0541
922.112	0.0868
922.409	0.0688
922.705	0.0697
923.002	0.0583
923.299	0.0803
923.595	0.0697
923.891	0.0478
924.188	0.0276
924.484	0.0608
924.78	0.092
925.077	0.0587
925.373	0.0626
925.669	0.0573
925.965	0.048
926.261	0.0884
926.557	0.0656
926.853	0.0469
927.149	0.063
927.444	0.06
927.74	0.032
928.036	0.0825
928.331	0.0719
928.627	0.0665
928.923	0.057
929.218	0.0621
929.513	0.058
929.809	0.1156
930.104	0.065
930.399	0.0642
930.694	0.0209
930.99	0.0096
931.285	0.049
931.58	0.0494
931.875	0.061
932.169	0.0962
932.464	0.0813
932.759	0.0912
933.054	0.0564
933.348	0.0653
933.643	0.1284
933.938	0.06
934.232	0.071
934.527	0.0748
934.821	0.1143
935.115	0.0812
935.41	0.0632
935.704	0.1441
935.998	0.1039
936.292	0.0781
936.586	0.1112
936.88	0.0564
937.174	0.0834
937.468	0.0388
937.762	0.1371
938.056	0.0714
938.35	-0.0185
938.643	0.1791
938.937	0.0423
939.23	-0.0095
939.524	-0.0108
939.817	0.0031
940.111	0.0701
940.404	0.08
940.698	0.0275
940.991	0.1041
941.284	0.0678
941.577	0.0103
941.87	0.0087
942.163	0.0021
942.456	0.0607
942.749	-0.0467
943.042	0.0874
943.335	0.0115
943.628	0.1621
943.92	0.046
944.213	0.0071
944.505	0.0891
944.798	0.0881
945.09	0.123
945.383	0.0699
945.675	0.074
945.967	0.0102
946.26	0.2125
946.552	0.1105
946.844	-0.0098
947.136	-0.1704
947.428	0.0784
947.72	0.0811
948.012	0.0925
948.304	0.0922
948.596	-0.0227
948.887	0.039
949.179	-0.0798
949.471	0.1505
949.762	-0.0969
950.054	0.0145
950.345	0.0285
950.637	0.2351
950.928	0.0108
951.219	0.0224
951.511	0.0191
951.802	-0.0984
952.093	0.1083
952.384	0.0228
952.675	0.0388
952.966	0.105
953.257	-0.0624
953.548	0.1556
953.839	0.1187
954.13	-0.0513
954.42	0.1096
954.711	-0.0658
955.001	0.1502
955.292	-0.0163
955.582	0.0091
955.873	-0.0049
956.163	0.063
956.454	0.0786
956.744	0.1499
957.034	0.0526
957.324	0.0695
957.614	0.0692
957.904	-0.0054
958.194	0.0793
958.484	0.0224
958.774	0.0181
959.064	-0.086
959.353	0.093
959.643	0.0963
959.933	0.3002
960.222	-0.0343
960.512	0.0783
960.801	-0.0154
961.091	0.0494
961.38	0.0193
961.669	0.003
961.959	0.1027
962.248	0.0151
962.537	-0.0463
962.826	-0.0179
963.115	0.0388
963.404	0.0283
963.693	0.1112
963.982	0.2671
964.271	0.0853
964.559	0.0027
964.848	0.0777
965.137	0.1249
965.425	0.1082
965.714	-0.0798
966.002	0.2455
966.291	0.0359
966.579	0.1394
966.867	0.075
967.156	0.0131
967.444	0.1938
967.732	0.0291
968.02	0.0489
968.308	-0.0023
968.596	0.0938
968.884	0.0388
969.172	0.0557
969.459	-0.0449
969.747	-0.0524
970.035	0.1083
970.322	0.0784
970.61	0.1135
970.898	0.053
971.185	-0.1038
971.472	0.2582
971.76	0.0374
972.047	0.0773
972.334	-0.0688
972.621	-0.0537
972.909	0.0637
973.196	-0.0249
973.483	0.053
973.77	0.0896
974.056	0.1758
974.343	0.097
974.63	0.0419
974.917	0.1165
975.203	-0.0028
975.49	0.1027
975.777	0.0436
976.063	0.0993
976.35	0.0502
976.636	0.0535
976.922	-0.0321
977.209	-0.059
977.495	-0.0503
977.781	0.1222
978.067	-0.0529
978.353	0.0877
978.639	0.09
978.925	0.0954
979.211	-0.2032
979.497	0.1212
979.782	0.1087
980.068	0.0793
980.354	0.0448
980.639	-0.16
980.925	0.1041
981.21	0.05
981.496	0.0499
981.781	0.0703
982.067	0.0182
982.352	-0.0267
982.637	-0.1559
982.922	0.0127
983.207	0.1865
983.492	-0.0235
983.777	-0.0049
984.062	0.0577
984.347	0.0109
984.632	-0.0043
984.917	0.5562
985.201	-0.0031
985.486	0.0076
985.771	0.101
986.055	0.1168
986.34	-0.1183
986.624	-0.1595
986.908	-0.0766
987.193	0.1221
987.477	0.1793
987.761	-0.1426
988.045	-0.0436
988.329	-0.1401
988.613	0.2066
988.897	-0.2589
989.181	0.1115
989.465	-0.0659
989.749	-0.0089
990.032	0.3806
990.316	0.0874
990.6	0.3078
990.883	0.2027
991.167	-0.0577
991.45	-0.2794
991.734	-0.1865
992.017	-0.0524
992.3	-0.1352
992.583	-0.0298
992.867	0.0153
993.15	-0.2609
993.433	-0.0396
993.716	-0.0292
993.999	0.1168
994.282	0.0536
994.564	-0.1172
994.847	-0.0415
995.13	0.3786
995.413	0.0251
995.695	0.0179
995.978	-0.1822
996.26	-0.1047
996.543	-0.2229
996.825	-0.1729
997.107	0.1749
997.389	0.0348
997.672	-0.0131
997.954	-0.0768
998.236	-0.649
998.518	0.0455
998.8	-0.0181
999.082	0.1116
999.364	-0.8765
999.645	0.1248
999.927	0.1324
1000.209	0.1104
1000.491	-0.0108
1000.772	0.1194
1001.054	0.2639
1001.335	0.2819
1001.616	-0.2476
1001.898	-0.2507
1002.179	0.226
1002.46	0.223
1002.742	-0.7553
1003.023	0.3061
1003.304	-0.2969
1003.585	0.0859
1003.866	-0.0278
1004.147	0.1016
1004.427	-0.7702
1004.708	-0.1874
1004.989	-0.3227
1005.269	-0.0938
1005.55	-0.4171
1005.831	-0.1487
1006.111	0.2048
1006.392	-0
1006.672	1.0719
1006.952	0.3204
1007.232	0.8242
1007.513	-0
1007.793	-1.1942
1008.073	-0.4851
1008.353	-0.186
1008.633	-0.0055
1008.913	0.0303
1009.193	-0.1682
1009.472	-0
1009.752	-0.019
1010.032	0.2335
1010.312	0.0971
1010.591	0.0064
1010.871	0.1184
1011.15	-0.4504
1011.429	-0.5622
1011.709	-0.0296
1011.988	0.763
1012.267	0.0556
1012.547	-0.4249
1012.826	-0
1013.105	0.1403
1013.384	-0
1013.663	-0.484
1013.941	-0.2575
1014.22	-0.0625
1014.499	0.0014
1014.778	-0.0544
1015.056	-0.0471
1015.335	0.8322
1015.614	-0.153
1015.892	-0.3849
1016.17	-0
1016.449	-0.3858
1016.727	0.0989
1017.005	0.1119
1017.284	0.1119
1017.562	0.1119
