Data from G6_V1_T40_Absorbance_15-44-52-281.txt Node
Date: Mon Sep 09 15:44:52 IST 2024
User: Optics Lab
Spectrometer: FLMS06900
Trigger mode: 0
Integration Time (sec): 6.000000E-3
Scans to average: 1
Electric dark correction enabled: true
Nonlinearity correction enabled: false
Boxcar width: 0
XAxis mode: Wavelengths
Number of Pixels in Spectrum: 2048
>>>>>Begin Spectral Data<<<<<
339.78	-0
340.159	-0
340.537	-0
340.915	-0
341.293	0.0404
341.671	-0.1386
342.049	0.1253
342.427	-0.3707
342.805	-0.0007
343.183	-0.6133
343.561	0.0011
343.939	-0
344.317	-0
344.694	-0.8208
345.072	0.0185
345.45	-0
345.827	-0.4547
346.205	0.0289
346.583	0.2242
346.96	-1.7066
347.338	-0.4607
347.715	0.6637
348.092	-0
348.47	-0.1732
348.847	0.5046
349.224	0.5836
349.601	1.6117
349.979	-0.2166
350.356	-0.1864
350.733	-0.669
351.11	0.2497
351.487	0.0599
351.864	-0
352.241	-0.915
352.618	-0.4357
352.995	-0.4505
353.372	0.1415
353.748	-0
354.125	0.0575
354.502	-0
354.878	-0.1236
355.255	0.1948
355.632	-0.1305
356.008	-0.2675
356.385	-0
356.761	-0.1227
357.137	1.6893
357.514	0.0376
357.89	-0
358.266	0.4483
358.643	0.0163
359.019	0.2834
359.395	-0.0059
359.771	-0
360.147	0.106
360.523	-0.0848
360.899	0.0649
361.275	-0.6056
361.651	0.123
362.027	0.1994
362.403	-0.1355
362.779	-0
363.155	0.6402
363.53	0.1895
363.906	0.0699
364.282	0.7757
364.657	0.1542
365.033	0.2006
365.408	0.1468
365.784	0.1661
366.159	-0.0289
366.535	0.7057
366.91	-0.0483
367.285	0.0773
367.66	-0.0886
368.036	-1.812
368.411	-0.0066
368.786	0.9399
369.161	0.6294
369.536	0.0946
369.911	-0.5084
370.286	-0.7495
370.661	-0.2453
371.036	-0.1502
371.411	-0.5832
371.786	-0.0912
372.16	-0.1506
372.535	-0
372.91	-0.1953
373.285	0.6933
373.659	0.1653
374.034	0.0258
374.408	-0.0924
374.783	0.238
375.157	0.0775
375.532	0.3874
375.906	-1.6413
376.28	0.099
376.655	-0.1506
377.029	0.1885
377.403	0.0182
377.777	0.1102
378.151	0.1145
378.525	0.2064
378.899	0.1224
379.273	-0.0234
379.647	-0.085
380.021	-0.1337
380.395	0.1467
380.769	-0.0442
381.143	0.1942
381.517	0.1646
381.89	0.0547
382.264	-0.0735
382.638	-0.1622
383.011	-0.1062
383.385	0.1008
383.758	-0.04
384.132	0.085
384.505	0.0419
384.878	0.0818
385.252	-0.143
385.625	-0.1206
385.998	0.0721
386.372	-0.0005
386.745	0.0686
387.118	0.1317
387.491	0.0087
387.864	-0.0063
388.237	-0.0207
388.61	-0.0485
388.983	0.0352
389.356	0.0567
389.729	0.16
390.101	-0.0359
390.474	0.115
390.847	0.1242
391.219	0.1064
391.592	0.058
391.965	0.0207
392.337	-0.0127
392.71	-0.0376
393.082	0.1093
393.455	0.061
393.827	-0.0346
394.199	0.0334
394.572	-0.0037
394.944	0.0808
395.316	0.0319
395.688	0.244
396.06	0.0026
396.433	-0.1301
396.805	-0.1912
397.177	0.038
397.549	0.062
397.92	0.0296
398.292	0.0295
398.664	-0.0343
399.036	0.1382
399.408	-0.0082
399.779	-0.0253
400.151	-0.0585
400.523	0.0898
400.894	0.1072
401.266	-0.0593
401.637	0.0755
402.009	-0.0119
402.38	0.125
402.752	0.0904
403.123	0.1015
403.494	0.0442
403.866	0.0866
404.237	0.1269
404.608	0.0535
404.979	0.0328
405.35	0.0855
405.721	0.0392
406.092	-0.0293
406.463	-0.0382
406.834	0.1124
407.205	0.0678
407.576	-0.0347
407.947	0.0241
408.317	-0.0656
408.688	-0.0349
409.059	-0.0119
409.429	-0.0363
409.8	0.0326
410.171	0.0281
410.541	-0.0188
410.912	0.0828
411.282	0.0724
411.652	0.0252
412.023	0.0117
412.393	-0.0146
412.763	0.0483
413.133	0.0023
413.504	0.0041
413.874	0.0696
414.244	0.0278
414.614	-0.0079
414.984	0.0041
415.354	0.0496
415.724	0.0407
416.094	0.0808
416.463	0.0463
416.833	0.0206
417.203	0.0547
417.573	0.075
417.942	0.0048
418.312	-0.0029
418.682	-0.0219
419.051	-0.0072
419.421	0.0707
419.79	-0.0018
420.159	-0.0139
420.529	0.0101
420.898	0.0247
421.267	0.0464
421.637	0.0255
422.006	0.0072
422.375	0.0762
422.744	0.0237
423.113	0.0116
423.482	0.0294
423.851	0.0323
424.22	0.0206
424.589	0.0171
424.958	0.0292
425.327	0.0452
425.695	0.0249
426.064	0.0389
426.433	0.0078
426.802	0.022
427.17	0.0231
427.539	0.0006
427.907	0.042
428.276	0.0106
428.644	0.0127
429.013	0.0082
429.381	0.0179
429.749	-0.0076
430.118	-0.0058
430.486	0.0173
430.854	0.009
431.222	0.0094
431.59	0.0229
431.958	0.0359
432.326	0.0395
432.694	0.0121
433.062	0.0352
433.43	-0.0138
433.798	0.0273
434.166	0.0563
434.533	0.0361
434.901	0.0414
435.269	-0.0141
435.636	0.0062
436.004	0.0284
436.372	0.0252
436.739	0.0379
437.107	0.0144
437.474	0.0276
437.841	0.0264
438.209	0.0321
438.576	0.0169
438.943	-0.0092
439.31	0.0336
439.678	0.0297
440.045	0.0287
440.412	0.01
440.779	0.0308
441.146	0.0472
441.513	0.027
441.88	0.038
442.247	0.0354
442.613	0.0385
442.98	0.0396
443.347	0.0221
443.714	0.0318
444.08	0.0598
444.447	0.017
444.813	-0.0014
445.18	0.0338
445.546	0.0124
445.913	0.0447
446.279	0.0088
446.646	-0.0165
447.012	0.0321
447.378	0.0326
447.744	0.0259
448.111	0.041
448.477	0.0176
448.843	0.0263
449.209	0.0592
449.575	0.0158
449.941	0.0266
450.307	0.0425
450.673	0.0261
451.039	0.0312
451.404	0.0442
451.77	0.0184
452.136	0.0508
452.502	0.0311
452.867	0.0143
453.233	0.0269
453.598	0.0028
453.964	0.0428
454.329	0.0552
454.695	0.0339
455.06	0.0385
455.425	0.0404
455.791	0.0227
456.156	0.0358
456.521	0.0434
456.886	0.029
457.251	0.0261
457.616	0.0206
457.981	0.044
458.346	0.0243
458.711	0.0284
459.076	0.0425
459.441	0.0416
459.806	0.0397
460.171	0.0156
460.535	0.0489
460.9	0.0444
461.265	0.0285
461.629	0.0311
461.994	0.0276
462.358	0.0189
462.723	0.0256
463.087	0.0647
463.452	0.0171
463.816	0.0451
464.18	0.0424
464.544	0.0368
464.909	0.0388
465.273	0.0133
465.637	0.0264
466.001	0.0193
466.365	0.0205
466.729	0.054
467.093	0.0191
467.457	0.0454
467.821	0.0398
468.185	0.0406
468.548	0.0341
468.912	0.0503
469.276	0.0221
469.639	0.0384
470.003	0.0088
470.367	0.0281
470.73	0.0319
471.094	0.0176
471.457	0.0481
471.82	0.0525
472.184	0.0339
472.547	0.0408
472.91	0.0254
473.274	0.046
473.637	0.0437
474	0.0348
474.363	0.0458
474.726	0.0266
475.089	0.0349
475.452	0.0299
475.815	0.0569
476.178	0.0491
476.54	0.0572
476.903	0.043
477.266	0.038
477.629	0.0359
477.991	0.0453
478.354	0.0363
478.716	0.0388
479.079	0.0428
479.441	0.0439
479.804	0.039
480.166	0.0446
480.529	0.0661
480.891	0.049
481.253	0.0379
481.615	0.0409
481.978	0.0422
482.34	0.0376
482.702	0.0453
483.064	0.0362
483.426	0.038
483.788	0.0463
484.15	0.0341
484.512	0.0368
484.873	0.031
485.235	0.0376
485.597	0.0396
485.959	0.035
486.32	0.0321
486.682	0.0386
487.043	0.037
487.405	0.0433
487.766	0.0328
488.128	0.0318
488.489	0.0323
488.85	0.0341
489.212	0.0395
489.573	0.0391
489.934	0.0469
490.295	0.0549
490.657	0.0344
491.018	0.0325
491.379	0.0437
491.74	0.0384
492.101	0.0466
492.461	0.0611
492.822	0.0439
493.183	0.0466
493.544	0.0474
493.905	0.0427
494.265	0.0375
494.626	0.0335
494.987	0.0526
495.347	0.0377
495.708	0.0474
496.068	0.047
496.429	0.0353
496.789	0.0419
497.149	0.0425
497.509	0.0528
497.87	0.0435
498.23	0.0444
498.59	0.0397
498.95	0.0516
499.31	0.0466
499.67	0.0471
500.03	0.0476
500.39	0.0415
500.75	0.0501
501.11	0.0511
501.47	0.0403
501.83	0.045
502.189	0.0408
502.549	0.0453
502.909	0.0392
503.268	0.0347
503.628	0.0361
503.987	0.0514
504.347	0.0431
504.706	0.0467
505.065	0.0538
505.425	0.0511
505.784	0.0479
506.143	0.0431
506.502	0.0377
506.862	0.0409
507.221	0.0407
507.58	0.0398
507.939	0.0409
508.298	0.0399
508.657	0.0441
509.015	0.0432
509.374	0.0465
509.733	0.0498
510.092	0.0428
510.451	0.046
510.809	0.0482
511.168	0.0489
511.526	0.0461
511.885	0.0396
512.243	0.048
512.602	0.0486
512.96	0.062
513.319	0.0377
513.677	0.0423
514.035	0.0405
514.393	0.0552
514.751	0.047
515.11	0.0438
515.468	0.0529
515.826	0.0412
516.184	0.0587
516.542	0.0505
516.9	0.0432
517.257	0.0395
517.615	0.0503
517.973	0.0441
518.331	0.0437
518.688	0.0453
519.046	0.0495
519.404	0.0504
519.761	0.0466
520.119	0.0462
520.476	0.0444
520.834	0.0536
521.191	0.0574
521.548	0.0453
521.906	0.0373
522.263	0.0398
522.62	0.0495
522.977	0.0488
523.334	0.0404
523.691	0.0502
524.048	0.0571
524.405	0.0578
524.762	0.0528
525.119	0.0543
525.476	0.0504
525.833	0.056
526.189	0.0562
526.546	0.0514
526.903	0.0467
527.259	0.0534
527.616	0.0495
527.973	0.0415
528.329	0.0517
528.685	0.0499
529.042	0.0466
529.398	0.0506
529.755	0.0576
530.111	0.0486
530.467	0.0432
530.823	0.0488
531.179	0.0513
531.535	0.0501
531.891	0.0532
532.247	0.0428
532.603	0.0517
532.959	0.0486
533.315	0.0533
533.671	0.0539
534.027	0.054
534.382	0.0601
534.738	0.0562
535.094	0.0467
535.449	0.0542
535.805	0.0572
536.16	0.0485
536.516	0.0519
536.871	0.0395
537.226	0.0543
537.582	0.0442
537.937	0.0483
538.292	0.0542
538.647	0.0535
539.003	0.0463
539.358	0.0601
539.713	0.0568
540.068	0.054
540.423	0.0536
540.778	0.0609
541.132	0.0441
541.487	0.0556
541.842	0.0473
542.197	0.0437
542.552	0.0393
542.906	0.0514
543.261	0.0427
543.615	0.0427
543.97	0.0601
544.324	0.0549
544.679	0.0684
545.033	0.0588
545.387	0.0559
545.742	0.0605
546.096	0.0696
546.45	0.066
546.804	0.0582
547.158	0.0611
547.512	0.0565
547.866	0.048
548.22	0.0453
548.574	0.0547
548.928	0.057
549.282	0.0456
549.636	0.0437
549.99	0.0468
550.343	0.0613
550.697	0.0604
551.05	0.0594
551.404	0.0573
551.758	0.0494
552.111	0.0616
552.464	0.0548
552.818	0.0491
553.171	0.0621
553.524	0.0604
553.878	0.0568
554.231	0.0515
554.584	0.0686
554.937	0.0617
555.29	0.0632
555.643	0.0621
555.996	0.0699
556.349	0.0603
556.702	0.0592
557.055	0.0558
557.408	0.0654
557.76	0.0688
558.113	0.0688
558.466	0.071
558.818	0.0681
559.171	0.0584
559.523	0.0623
559.876	0.0663
560.228	0.0638
560.581	0.0655
560.933	0.0631
561.285	0.0759
561.638	0.0597
561.99	0.0678
562.342	0.0717
562.694	0.0706
563.046	0.0692
563.398	0.0679
563.75	0.075
564.102	0.0741
564.454	0.0785
564.806	0.0739
565.158	0.0711
565.509	0.0668
565.861	0.0703
566.213	0.0694
566.564	0.0671
566.916	0.0715
567.267	0.0738
567.619	0.0719
567.97	0.0798
568.322	0.0702
568.673	0.0742
569.024	0.066
569.376	0.0694
569.727	0.0625
570.078	0.0599
570.429	0.0674
570.78	0.0658
571.131	0.0721
571.482	0.0793
571.833	0.0768
572.184	0.0749
572.535	0.0848
572.885	0.072
573.236	0.0755
573.587	0.0765
573.938	0.0783
574.288	0.0794
574.639	0.0687
574.989	0.0713
575.34	0.0825
575.69	0.0829
576.04	0.0766
576.391	0.0762
576.741	0.0767
577.091	0.075
577.442	0.0836
577.792	0.065
578.142	0.0698
578.492	0.0646
578.842	0.0755
579.192	0.0812
579.542	0.0801
579.892	0.0767
580.241	0.0722
580.591	0.0794
580.941	0.0748
581.291	0.0872
581.64	0.0868
581.99	0.0812
582.339	0.0811
582.689	0.0855
583.038	0.0849
583.388	0.0896
583.737	0.0793
584.086	0.0822
584.436	0.0852
584.785	0.0854
585.134	0.0783
585.483	0.0812
585.832	0.076
586.181	0.081
586.53	0.082
586.879	0.0787
587.228	0.0814
587.577	0.0829
587.926	0.0842
588.275	0.0806
588.623	0.0894
588.972	0.0939
589.321	0.0973
589.669	0.0888
590.018	0.0942
590.366	0.0744
590.715	0.0884
591.063	0.0932
591.412	0.0862
591.76	0.0915
592.108	0.1012
592.456	0.0936
592.805	0.0914
593.153	0.0942
593.501	0.0949
593.849	0.0802
594.197	0.0949
594.545	0.094
594.893	0.0979
595.24	0.1022
595.588	0.1033
595.936	0.1
596.284	0.0966
596.631	0.0887
596.979	0.1014
597.327	0.1024
597.674	0.109
598.022	0.1007
598.369	0.0968
598.716	0.0972
599.064	0.0937
599.411	0.0994
599.758	0.0994
600.105	0.0915
600.453	0.1008
600.8	0.105
601.147	0.0991
601.494	0.1061
601.841	0.1029
602.188	0.0987
602.535	0.1057
602.881	0.1078
603.228	0.1112
603.575	0.0984
603.922	0.1065
604.268	0.1082
604.615	0.1038
604.961	0.1061
605.308	0.1039
605.654	0.1183
606.001	0.1149
606.347	0.1183
606.693	0.1105
607.04	0.1096
607.386	0.1141
607.732	0.11
608.078	0.119
608.424	0.1112
608.77	0.1113
609.116	0.1196
609.462	0.1142
609.808	0.1218
610.154	0.1213
610.5	0.1141
610.846	0.1148
611.191	0.1122
611.537	0.1143
611.883	0.1168
612.228	0.1146
612.574	0.1119
612.919	0.1175
613.265	0.1156
613.61	0.1209
613.955	0.1238
614.301	0.1225
614.646	0.1178
614.991	0.1154
615.336	0.1199
615.681	0.1167
616.026	0.1206
616.371	0.1231
616.716	0.1168
617.061	0.1277
617.406	0.1224
617.751	0.1156
618.096	0.1266
618.44	0.1243
618.785	0.1141
619.13	0.1107
619.474	0.1212
619.819	0.1127
620.163	0.1174
620.508	0.1131
620.852	0.1271
621.197	0.1323
621.541	0.1269
621.885	0.1249
622.229	0.1206
622.574	0.1272
622.918	0.1285
623.262	0.1263
623.606	0.1237
623.95	0.1216
624.294	0.12
624.638	0.1214
624.981	0.1253
625.325	0.123
625.669	0.1214
626.013	0.1242
626.356	0.1225
626.7	0.1239
627.043	0.1254
627.387	0.1254
627.73	0.118
628.074	0.1249
628.417	0.116
628.761	0.1178
629.104	0.1161
629.447	0.1156
629.79	0.1166
630.133	0.1241
630.476	0.1223
630.819	0.132
631.162	0.1356
631.505	0.131
631.848	0.1269
632.191	0.1212
632.534	0.1354
632.877	0.1188
633.219	0.1309
633.562	0.1223
633.905	0.1357
634.247	0.1271
634.59	0.1274
634.932	0.1268
635.275	0.1208
635.617	0.1201
635.959	0.1222
636.302	0.1239
636.644	0.1315
636.986	0.1274
637.328	0.1332
637.67	0.1323
638.012	0.134
638.354	0.1444
638.696	0.1363
639.038	0.1328
639.38	0.133
639.722	0.1316
640.064	0.1324
640.405	0.1428
640.747	0.1477
641.089	0.1312
641.43	0.1248
641.772	0.1378
642.113	0.1444
642.455	0.1437
642.796	0.1351
643.137	0.1337
643.479	0.1277
643.82	0.1475
644.161	0.1397
644.502	0.1477
644.843	0.1497
645.185	0.1412
645.526	0.1416
645.866	0.1398
646.207	0.1444
646.548	0.1556
646.889	0.1597
647.23	0.1571
647.571	0.1569
647.911	0.1511
648.252	0.1495
648.592	0.1558
648.933	0.1556
649.273	0.1573
649.614	0.1547
649.954	0.1567
650.295	0.1583
650.635	0.1589
650.975	0.1632
651.315	0.1658
651.656	0.1618
651.996	0.1575
652.336	0.1573
652.676	0.1597
653.016	0.1543
653.356	0.1559
653.695	0.1645
654.035	0.1559
654.375	0.156
654.715	0.1594
655.054	0.173
655.394	0.1704
655.734	0.1721
656.073	0.1764
656.413	0.1785
656.752	0.1816
657.091	0.1665
657.431	0.1717
657.77	0.1627
658.109	0.1753
658.449	0.1682
658.788	0.1813
659.127	0.1697
659.466	0.1736
659.805	0.1789
660.144	0.192
660.483	0.1875
660.822	0.1894
661.16	0.1775
661.499	0.1763
661.838	0.1819
662.177	0.1858
662.515	0.1865
662.854	0.1739
663.192	0.1708
663.531	0.1676
663.869	0.1729
664.208	0.174
664.546	0.1758
664.884	0.1806
665.222	0.1858
665.561	0.1839
665.899	0.1675
666.237	0.1814
666.575	0.1894
666.913	0.1989
667.251	0.1848
667.589	0.1991
667.927	0.1948
668.264	0.1896
668.602	0.1852
668.94	0.1733
669.278	0.1765
669.615	0.1729
669.953	0.1723
670.29	0.1717
670.628	0.1748
670.965	0.1667
671.303	0.1599
671.64	0.1648
671.977	0.166
672.314	0.1807
672.652	0.1716
672.989	0.1673
673.326	0.1727
673.663	0.1728
674	0.1822
674.337	0.1886
674.674	0.1736
675.01	0.1825
675.347	0.1688
675.684	0.1692
676.021	0.1699
676.357	0.1537
676.694	0.1614
677.031	0.142
677.367	0.1379
677.704	0.1504
678.04	0.1351
678.376	0.1385
678.713	0.1304
679.049	0.1469
679.385	0.1519
679.721	0.1376
680.057	0.1535
680.393	0.1443
680.73	0.1371
681.065	0.1526
681.401	0.1464
681.737	0.1514
682.073	0.1425
682.409	0.1304
682.745	0.1313
683.08	0.1283
683.416	0.1298
683.752	0.121
684.087	0.1222
684.423	0.1207
684.758	0.1106
685.093	0.1145
685.429	0.1208
685.764	0.1059
686.099	0.1214
686.435	0.1152
686.77	0.1177
687.105	0.1073
687.44	0.1047
687.775	0.0985
688.11	0.1056
688.445	0.1149
688.78	0.1125
689.114	0.1051
689.449	0.1046
689.784	0.1058
690.119	0.1065
690.453	0.1038
690.788	0.108
691.122	0.0981
691.457	0.0946
691.791	0.0961
692.126	0.0834
692.46	0.0918
692.794	0.0993
693.128	0.0827
693.463	0.09
693.797	0.0867
694.131	0.0863
694.465	0.09
694.799	0.0994
695.133	0.0993
695.467	0.0915
695.801	0.0998
696.134	0.0955
696.468	0.0869
696.802	0.089
697.135	0.0913
697.469	0.0855
697.803	0.0887
698.136	0.0874
698.47	0.0817
698.803	0.085
699.136	0.0833
699.47	0.0754
699.803	0.0766
700.136	0.0773
700.469	0.0712
700.802	0.0704
701.135	0.0916
701.468	0.0861
701.801	0.0754
702.134	0.0876
702.467	0.0846
702.8	0.0774
703.133	0.0816
703.465	0.0807
703.798	0.0822
704.131	0.0704
704.463	0.0779
704.796	0.0829
705.128	0.0766
705.461	0.0782
705.793	0.0692
706.125	0.0656
706.458	0.0697
706.79	0.0658
707.122	0.0753
707.454	0.0701
707.786	0.0687
708.118	0.0647
708.45	0.0703
708.782	0.0758
709.114	0.0719
709.446	0.0717
709.778	0.0748
710.11	0.0772
710.441	0.0845
710.773	0.0803
711.104	0.0736
711.436	0.0687
711.768	0.0752
712.099	0.0803
712.43	0.0695
712.762	0.0702
713.093	0.0794
713.424	0.078
713.755	0.0727
714.087	0.0659
714.418	0.0715
714.749	0.0752
715.08	0.0761
715.411	0.0772
715.742	0.065
716.072	0.0788
716.403	0.0814
716.734	0.0769
717.065	0.0678
717.395	0.0722
717.726	0.0588
718.057	0.0572
718.387	0.0638
718.718	0.0722
719.048	0.0631
719.378	0.0668
719.709	0.0736
720.039	0.071
720.369	0.0592
720.699	0.0743
721.029	0.0608
721.359	0.0669
721.689	0.0763
722.019	0.0677
722.349	0.0672
722.679	0.0715
723.009	0.0679
723.339	0.0781
723.669	0.0813
723.998	0.0702
724.328	0.0701
724.657	0.07
724.987	0.065
725.316	0.0678
725.646	0.0766
725.975	0.0751
726.305	0.0699
726.634	0.0676
726.963	0.0733
727.292	0.0734
727.621	0.0763
727.95	0.0782
728.279	0.0716
728.608	0.0687
728.937	0.0799
729.266	0.0707
729.595	0.0807
729.924	0.0771
730.253	0.0667
730.581	0.0696
730.91	0.0633
731.238	0.0672
731.567	0.073
731.896	0.0769
732.224	0.0752
732.552	0.0607
732.881	0.0602
733.209	0.0699
733.537	0.0722
733.865	0.0632
734.194	0.0726
734.522	0.0691
734.85	0.0693
735.178	0.0718
735.506	0.0552
735.833	0.0724
736.161	0.0773
736.489	0.0743
736.817	0.0742
737.144	0.0808
737.472	0.0798
737.8	0.0692
738.127	0.0699
738.455	0.0745
738.782	0.0788
739.11	0.0698
739.437	0.0546
739.764	0.0548
740.091	0.0647
740.419	0.067
740.746	0.0626
741.073	0.0712
741.4	0.0693
741.727	0.0716
742.054	0.0672
742.381	0.0564
742.708	0.0724
743.034	0.0814
743.361	0.0876
743.688	0.081
744.014	0.0808
744.341	0.0705
744.668	0.0759
744.994	0.0822
745.321	0.0727
745.647	0.0657
745.973	0.0735
746.3	0.0718
746.626	0.064
746.952	0.0701
747.278	0.0709
747.604	0.0534
747.93	0.0662
748.256	0.0669
748.582	0.054
748.908	0.0615
749.234	0.0614
749.56	0.0791
749.885	0.0789
750.211	0.082
750.537	0.079
750.862	0.0802
751.188	0.0759
751.513	0.0748
751.839	0.0635
752.164	0.073
752.49	0.0668
752.815	0.0729
753.14	0.0643
753.465	0.0664
753.79	0.0625
754.116	0.0713
754.441	0.0729
754.766	0.0657
755.091	0.0724
755.415	0.0659
755.74	0.0596
756.065	0.0675
756.39	0.0678
756.714	0.0789
757.039	0.0807
757.364	0.0659
757.688	0.0714
758.013	0.0781
758.337	0.0783
758.662	0.0698
758.986	0.0708
759.31	0.0796
759.634	0.0739
759.959	0.0664
760.283	0.0726
760.607	0.0774
760.931	0.0713
761.255	0.0767
761.579	0.0769
761.903	0.068
762.226	0.0634
762.55	0.0677
762.874	0.074
763.198	0.0656
763.521	0.0723
763.845	0.0746
764.168	0.0812
764.492	0.0719
764.815	0.0737
765.139	0.0738
765.462	0.0769
765.785	0.0797
766.109	0.0747
766.432	0.0692
766.755	0.0808
767.078	0.0654
767.401	0.0672
767.724	0.0684
768.047	0.0642
768.37	0.072
768.693	0.0751
769.015	0.0701
769.338	0.0746
769.661	0.0801
769.983	0.0679
770.306	0.0772
770.628	0.0619
770.951	0.0644
771.273	0.0549
771.596	0.0593
771.918	0.0606
772.24	0.063
772.562	0.0621
772.885	0.0651
773.207	0.053
773.529	0.0682
773.851	0.0691
774.173	0.0736
774.495	0.091
774.817	0.0762
775.138	0.0846
775.46	0.0848
775.782	0.0777
776.103	0.0761
776.425	0.0678
776.747	0.0759
777.068	0.0696
777.39	0.0689
777.711	0.0777
778.032	0.0729
778.354	0.0621
778.675	0.0841
778.996	0.065
779.317	0.0745
779.638	0.068
779.959	0.0722
780.28	0.0769
780.601	0.0795
780.922	0.0723
781.243	0.0774
781.564	0.0691
781.885	0.0681
782.205	0.0785
782.526	0.057
782.847	0.0696
783.167	0.062
783.488	0.0657
783.808	0.072
784.128	0.0508
784.449	0.0522
784.769	0.0574
785.089	0.0641
785.409	0.062
785.73	0.0729
786.05	0.0654
786.37	0.0642
786.69	0.0725
787.01	0.0814
787.329	0.0788
787.649	0.0673
787.969	0.0678
788.289	0.0661
788.608	0.0699
788.928	0.0619
789.248	0.0753
789.567	0.0738
789.887	0.067
790.206	0.0695
790.525	0.0668
790.845	0.073
791.164	0.0634
791.483	0.0617
791.802	0.077
792.121	0.0816
792.44	0.0671
792.76	0.0827
793.078	0.0806
793.397	0.1018
793.716	0.0844
794.035	0.0836
794.354	0.0772
794.672	0.0806
794.991	0.081
795.31	0.0838
795.628	0.0681
795.947	0.0653
796.265	0.0749
796.584	0.0635
796.902	0.072
797.22	0.0571
797.538	0.0518
797.857	0.0779
798.175	0.0631
798.493	0.0751
798.811	0.0764
799.129	0.0736
799.447	0.0936
799.765	0.0927
800.083	0.0984
800.4	0.083
800.718	0.0828
801.036	0.0891
801.353	0.0928
801.671	0.096
801.988	0.0874
802.306	0.0756
802.623	0.0738
802.941	0.0811
803.258	0.0764
803.575	0.0724
803.892	0.0746
804.21	0.0629
804.527	0.0488
804.844	0.054
805.161	0.0474
805.478	0.0513
805.795	0.0493
806.111	0.0489
806.428	0.0702
806.745	0.0764
807.062	0.0915
807.378	0.0762
807.695	0.0918
808.011	0.0943
808.328	0.0887
808.644	0.0797
808.961	0.0736
809.277	0.0821
809.593	0.0897
809.91	0.0875
810.226	0.0924
810.542	0.0929
810.858	0.0662
811.174	0.0636
811.49	0.0907
811.806	0.0753
812.122	0.0636
812.438	0.0709
812.753	0.066
813.069	0.0698
813.385	0.0503
813.7	0.055
814.016	0.0484
814.331	0.0564
814.647	0.0555
814.962	0.0444
815.278	0.0619
815.593	0.074
815.908	0.0725
816.223	0.0715
816.538	0.0767
816.854	0.0661
817.169	0.0728
817.484	0.0843
817.799	0.083
818.113	0.0923
818.428	0.0956
818.743	0.0955
819.058	0.0893
819.372	0.0749
819.687	0.0686
820.002	0.0701
820.316	0.0532
820.631	0.0672
820.945	0.0733
821.259	0.0699
821.574	0.0856
821.888	0.0735
822.202	0.0605
822.516	0.0601
822.83	0.0647
823.145	0.0532
823.459	0.0617
823.772	0.0633
824.086	0.0663
824.4	0.0788
824.714	0.0771
825.028	0.0747
825.341	0.0704
825.655	0.0716
825.969	0.0674
826.282	0.0809
826.596	0.0942
826.909	0.083
827.222	0.0608
827.536	0.0691
827.849	0.0739
828.162	0.0589
828.475	0.0657
828.789	0.067
829.102	0.0807
829.415	0.0832
829.728	0.0724
830.041	0.0731
830.353	0.0542
830.666	0.0657
830.979	0.0638
831.292	0.0794
831.604	0.0623
831.917	0.0687
832.229	0.0732
832.542	0.0764
832.854	0.0753
833.167	0.0797
833.479	0.0786
833.791	0.0746
834.104	0.0835
834.416	0.0798
834.728	0.0724
835.04	0.0779
835.352	0.0766
835.664	0.0566
835.976	0.0683
836.288	0.0854
836.599	0.0785
836.911	0.0927
837.223	0.0762
837.535	0.0762
837.846	0.0718
838.158	0.0904
838.469	0.0936
838.781	0.0954
839.092	0.0759
839.403	0.0764
839.715	0.0701
840.026	0.0788
840.337	0.0812
840.648	0.0796
840.959	0.0766
841.27	0.0891
841.581	0.0753
841.892	0.0669
842.203	0.0558
842.514	0.0617
842.825	0.078
843.135	0.0774
843.446	0.0789
843.757	0.0765
844.067	0.0657
844.378	0.0782
844.688	0.0726
844.999	0.0763
845.309	0.0669
845.619	0.0764
845.929	0.0851
846.24	0.08
846.55	0.0813
846.86	0.0837
847.17	0.0684
847.48	0.073
847.79	0.0783
848.1	0.0849
848.409	0.0513
848.719	0.0667
849.029	0.0553
849.338	0.048
849.648	0.0561
849.958	0.0671
850.267	0.0657
850.577	0.0585
850.886	0.0689
851.195	0.0651
851.505	0.0577
851.814	0.0782
852.123	0.0673
852.432	0.0572
852.741	0.0579
853.05	0.0755
853.359	0.079
853.668	0.0942
853.977	0.091
854.286	0.0936
854.595	0.0713
854.903	0.0881
855.212	0.0794
855.521	0.0646
855.829	0.0828
856.138	0.0835
856.446	0.0941
856.754	0.0819
857.063	0.0721
857.371	0.0621
857.679	0.0824
857.987	0.0817
858.296	0.072
858.604	0.0778
858.912	0.0997
859.22	0.0719
859.527	0.0649
859.835	0.0868
860.143	0.0831
860.451	0.0746
860.759	0.0647
861.066	0.0721
861.374	0.0434
861.681	0.0819
861.989	0.0912
862.296	0.083
862.604	0.0995
862.911	0.0724
863.218	0.0864
863.526	0.08
863.833	0.0699
864.14	0.071
864.447	0.0829
864.754	0.0809
865.061	0.0813
865.368	0.0775
865.675	0.0816
865.981	0.0538
866.288	0.0826
866.595	0.065
866.901	0.0686
867.208	0.074
867.515	0.0664
867.821	0.0672
868.127	0.0819
868.434	0.0847
868.74	0.0916
869.046	0.0927
869.353	0.0851
869.659	0.0782
869.965	0.0818
870.271	0.0812
870.577	0.0522
870.883	0.0766
871.189	0.0846
871.495	0.0865
871.8	0.1145
872.106	0.0617
872.412	0.078
872.717	0.0613
873.023	0.0801
873.329	0.0637
873.634	0.1076
873.939	0.0843
874.245	0.1026
874.55	0.0744
874.855	0.0874
875.161	0.0514
875.466	0.0807
875.771	0.0642
876.076	0.0907
876.381	0.0869
876.686	0.0742
876.991	0.0832
877.295	0.0904
877.6	0.0741
877.905	0.0819
878.21	0.0781
878.514	0.0698
878.819	0.0858
879.123	0.0456
879.428	0.0763
879.732	0.0446
880.036	0.0747
880.341	0.0804
880.645	0.0963
880.949	0.0721
881.253	0.0813
881.557	0.0729
881.861	0.1057
882.165	0.0675
882.469	0.0794
882.773	0.0609
883.077	0.0645
883.381	0.0749
883.684	0.0815
883.988	0.0747
884.292	0.0982
884.595	0.0535
884.899	0.0881
885.202	0.1035
885.505	0.0892
885.809	0.0809
886.112	0.056
886.415	0.0465
886.718	0.0626
887.022	0.066
887.325	0.0601
887.628	0.0785
887.931	0.0611
888.233	0.0716
888.536	0.0944
888.839	0.0854
889.142	0.0315
889.444	0.0733
889.747	0.0783
890.05	0.0459
890.352	0.0615
890.655	0.0976
890.957	0.0723
891.259	0.0733
891.562	0.081
891.864	0.0624
892.166	0.0809
892.468	0.0933
892.77	0.0747
893.072	0.0599
893.374	0.0672
893.676	0.0537
893.978	0.0609
894.28	0.0725
894.582	0.0719
894.883	0.0803
895.185	0.0602
895.487	0.0669
895.788	0.0788
896.09	0.0616
896.391	0.1012
896.693	0.0749
896.994	0.0729
897.295	0.082
897.596	0.0664
897.898	0.0767
898.199	0.0971
898.5	0.0809
898.801	0.0931
899.102	0.0884
899.403	0.1155
899.703	0.1082
900.004	0.0828
900.305	0.0667
900.606	0.0671
900.906	0.0867
901.207	0.0476
901.507	0.0748
901.808	0.0738
902.108	0.0799
902.409	0.0606
902.709	0.0676
903.009	0.049
903.309	0.0481
903.61	0.082
903.91	0.0494
904.21	0.0817
904.51	0.0461
904.81	0.0792
905.109	0.0657
905.409	0.1134
905.709	0.1011
906.009	0.0819
906.308	0.0656
906.608	0.0843
906.907	0.0551
907.207	0.019
907.506	0.0547
907.806	0.0485
908.105	0.0784
908.404	0.0781
908.704	0.0885
909.003	0.0554
909.302	0.0801
909.601	0.0697
909.9	0.0427
910.199	0.0768
910.498	0.0636
910.797	0.0546
911.095	0.0741
911.394	0.0694
911.693	0.0923
911.991	0.069
912.29	0.05
912.589	0.0741
912.887	0.0841
913.185	0.0918
913.484	0.0642
913.782	0.0519
914.08	0.0749
914.378	0.0698
914.677	0.0804
914.975	0.0606
915.273	0.0881
915.571	0.0573
915.869	0.0689
916.166	0.0896
916.464	0.0848
916.762	0.0628
917.06	0.093
917.357	0.098
917.655	0.0832
917.952	0.0658
918.25	0.0926
918.547	0.0725
918.845	0.073
919.142	0.0703
919.439	0.1004
919.736	0.09
920.034	0.0451
920.331	0.0739
920.628	0.0539
920.925	0.0744
921.222	0.0515
921.518	0.0327
921.815	0.0343
922.112	0.0653
922.409	0.0687
922.705	0.1055
923.002	0.0741
923.299	0.0616
923.595	0.0713
923.891	0.0591
924.188	0.0328
924.484	0.0589
924.78	0.0753
925.077	0.0555
925.373	0.1022
925.669	0.0737
925.965	0.0624
926.261	0.1225
926.557	0.0699
926.853	0.0364
927.149	0.089
927.444	0.0947
927.74	0.055
928.036	0.086
928.331	0.0606
928.627	0.0843
928.923	0.0793
929.218	0.1193
929.513	0.0788
929.809	0.1305
930.104	0.0515
930.399	0.0656
930.694	0.0495
930.99	0.0385
931.285	0.0876
931.58	0.0865
931.875	0.0697
932.169	0.0627
932.464	0.0529
932.759	0.052
933.054	0.0782
933.348	0.1247
933.643	0.1107
933.938	0.0927
934.232	0.0478
934.527	0.0529
934.821	0.1121
935.115	0.0692
935.41	0.0568
935.704	0.1779
935.998	0.134
936.292	0.1094
936.586	0.1181
936.88	0.1061
937.174	0.1079
937.468	0.0581
937.762	0.1383
938.056	0.0531
938.35	0.0234
938.643	0.0904
938.937	0.0762
939.23	0.0394
939.524	0.0942
939.817	0.0209
940.111	0.0783
940.404	0.0547
940.698	0.0049
940.991	0.111
941.284	0.0748
941.577	-0.0241
941.87	0.0439
942.163	0.0691
942.456	0.058
942.749	-0.047
943.042	0.0618
943.335	0.1243
943.628	0.0872
943.92	0.0359
944.213	-0.0164
944.505	0.0356
944.798	0.114
945.09	0.0229
945.383	0.2191
945.675	0.2313
945.967	0.1013
946.26	0.0025
946.552	0.3246
946.844	0.1275
947.136	-0.0719
947.428	0.0552
947.72	-0.0032
948.012	-0.0179
948.304	0.0648
948.596	-0.0454
948.887	0.1552
949.179	-0.0052
949.471	0.1831
949.762	-0.0912
950.054	0.0962
950.345	0.0649
950.637	0.3017
950.928	-0.0634
951.219	-0.0262
951.511	0.0771
951.802	0.0118
952.093	0.1113
952.384	0.1875
952.675	0.3366
952.966	0.0052
953.257	0.0614
953.548	0.2284
953.839	0.0878
954.13	0.0704
954.42	0.2793
954.711	-0.0902
955.001	0.1695
955.292	-0.0454
955.582	0.0684
955.873	0.0797
956.163	0.1131
956.454	0.0136
956.744	-0.0429
957.034	0.0865
957.324	0.0033
957.614	-0.0002
957.904	0.0941
958.194	0.0613
958.484	0.115
958.774	0.0939
959.064	-0.0404
959.353	0.0228
959.643	0.0957
959.933	0.2843
960.222	-0.0271
960.512	0.203
960.801	0.0217
961.091	0.0209
961.38	0.104
961.669	0.101
961.959	-0.0719
962.248	-0.0179
962.537	-0.0991
962.826	0.0813
963.115	0.0543
963.404	0.0025
963.693	0.0715
963.982	0.1731
964.271	0.2511
964.559	0.0769
964.848	0.1215
965.137	0.1502
965.425	0.0987
965.714	-0.0731
966.002	0.2054
966.291	0.0834
966.579	0.045
966.867	0.0189
967.156	0.0391
967.444	0.0142
967.732	0.0482
968.02	0.0885
968.308	0.2717
968.596	0.106
968.884	0.0502
969.172	0.0821
969.459	0.003
969.747	0.1765
970.035	0.0504
970.322	0.1731
970.61	-0.0172
970.898	-0.0579
971.185	0.0041
971.472	0.211
971.76	0.1048
972.047	-0.0356
972.334	-0.0873
972.621	0.0107
972.909	0.1408
973.196	0.0073
973.483	0.0475
973.77	-0.0318
974.056	0.1607
974.343	0.1849
974.63	0.0736
974.917	0.106
975.203	0.0499
975.49	0.1102
975.777	-0.0495
976.063	0.0292
976.35	0.1262
976.636	0.1444
976.922	-0.1004
977.209	-0.0121
977.495	0.0571
977.781	-0.079
978.067	-0.019
978.353	-0.0085
978.639	0.2308
978.925	0.1106
979.211	-0.0003
979.497	0.0337
979.782	0.0714
980.068	-0.0435
980.354	-0.0369
980.639	-0.0073
980.925	-0.044
981.21	0.0624
981.496	-0.0668
981.781	-0.0435
982.067	0.0598
982.352	0.1697
982.637	0.1578
982.922	0.2056
983.207	0.2664
983.492	-0.0244
983.777	-0.0909
984.062	0.037
984.347	0.2378
984.632	-0.1015
984.917	-0.1464
985.201	-0.0405
985.486	-0.0965
985.771	0.2124
986.055	-0.0354
986.34	-0.0422
986.624	-0.1525
986.908	0.085
987.193	0.0206
987.477	0.097
987.761	-0.0379
988.045	0.1432
988.329	-0.2059
988.613	0.3213
988.897	-0.164
989.181	0.2172
989.465	0.0916
989.749	-0.0709
990.032	0.2593
990.316	0.0579
990.6	0.1746
990.883	0.0564
991.167	-0.0236
991.45	0.0223
991.734	-0.1775
992.017	0.0245
992.3	0.0056
992.583	-0.0704
992.867	0.0451
993.15	-0.0387
993.433	0.0997
993.716	0.2228
993.999	-0.0757
994.282	0.0587
994.564	0.1394
994.847	0.0038
995.13	0.6958
995.413	0.0912
995.695	-0.1283
995.978	-0.1832
996.26	-0.129
996.543	-0.021
996.825	-0.1744
997.107	-0.0259
997.389	-0.3351
997.672	-0
997.954	0.2582
998.236	-0.5269
998.518	0.8301
998.8	-0.1643
999.082	0.1029
999.364	-0.4408
999.645	0.1906
999.927	0.1883
1000.209	0.2183
1000.491	0.0555
1000.772	-0.1105
1001.054	0.1352
1001.335	0.2269
1001.616	-0.2876
1001.898	-0.0148
1002.179	0.1767
1002.46	-0
1002.742	-0.3122
1003.023	0.2112
1003.304	-0.1148
1003.585	0.0164
1003.866	-0.1334
1004.147	-0.0665
1004.427	-0.2325
1004.708	-0.2093
1004.989	0.1596
1005.269	0.2878
1005.55	-0
1005.831	0.0332
1006.111	0.0612
1006.392	-0.1122
1006.672	-0.0415
1006.952	0.0599
1007.232	0.6156
1007.513	-0.669
1007.793	-0
1008.073	0.0311
1008.353	1.08
1008.633	0.0393
1008.913	-0
1009.193	-0.1139
1009.472	-0
1009.752	-0.1499
1010.032	-0.0275
1010.312	-0
1010.591	-0
1010.871	0.2317
1011.15	0.5398
1011.429	0.3979
1011.709	-0.1151
1011.988	-0
1012.267	0.0767
1012.547	-0.4762
1012.826	-0
1013.105	-0.1727
1013.384	-0.3434
1013.663	-0.2647
1013.941	-0.0723
1014.22	-0
1014.499	0.4211
1014.778	-0.1076
1015.056	0.0422
1015.335	-0.4401
1015.614	-0
1015.892	-0.2155
1016.17	-0
1016.449	-0.1839
1016.727	0.0144
1017.005	0.5477
1017.284	0.5477
1017.562	0.5477
